# OpenSignals Text File Format. Version 1
# {"20:18:06:13:02:53": {"position": 0, "device": "bitalino_rev", "device name": "20:18:06:13:02:53", "device connection": "BTH20:18:06:13:02:53", "sampling rate": 1000, "resolution": [4, 1, 1, 1, 1, 10], "firmware version": 1281, "comments": "", "keywords": "", "mode": 0, "sync interval": 2, "date": "2025-5-23", "time": "16:20:42.691", "channels": [2], "sensor": ["ECGBIT"], "label": ["A2"], "column": ["nSeq", "I1", "I2", "O1", "O2", "A2"], "special": [{}], "digital IO": [0, 0, 1, 1], "convertedValues": 1}}
# EndOfHeader
0.0	0.0	0.0	0.0	0.0	-0.117	
1.0	0.0	0.0	0.0	0.0	-0.103	
2.0	0.0	0.0	0.0	0.0	-0.082	
3.0	0.0	0.0	0.0	0.0	-0.059	
4.0	0.0	0.0	0.0	0.0	-0.038	
5.0	0.0	0.0	0.0	0.0	-0.015	
6.0	0.0	0.0	0.0	0.0	0.003	
7.0	0.0	0.0	0.0	0.0	0.012	
8.0	0.0	0.0	0.0	0.0	0.021	
9.0	0.0	0.0	0.0	0.0	0.021	
10.0	0.0	0.0	0.0	0.0	0.015	
11.0	0.0	0.0	0.0	0.0	0.003	
12.0	0.0	0.0	0.0	0.0	-0.015	
13.0	0.0	0.0	0.0	0.0	-0.035	
14.0	0.0	0.0	0.0	0.0	-0.053	
15.0	0.0	0.0	0.0	0.0	-0.073	
0.0	0.0	0.0	0.0	0.0	-0.088	
1.0	0.0	0.0	0.0	0.0	-0.1	
2.0	0.0	0.0	0.0	0.0	-0.12	
3.0	0.0	0.0	0.0	0.0	-0.114	
4.0	0.0	0.0	0.0	0.0	-0.103	
5.0	0.0	0.0	0.0	0.0	-0.085	
6.0	0.0	0.0	0.0	0.0	-0.067	
7.0	0.0	0.0	0.0	0.0	-0.044	
8.0	0.0	0.0	0.0	0.0	-0.023	
9.0	0.0	0.0	0.0	0.0	0.0	
10.0	0.0	0.0	0.0	0.0	0.018	
11.0	0.0	0.0	0.0	0.0	0.029	
12.0	0.0	0.0	0.0	0.0	0.035	
13.0	0.0	0.0	0.0	0.0	0.035	
14.0	0.0	0.0	0.0	0.0	0.026	
15.0	0.0	0.0	0.0	0.0	0.015	
0.0	0.0	0.0	0.0	0.0	-0.003	
1.0	0.0	0.0	0.0	0.0	-0.023	
2.0	0.0	0.0	0.0	0.0	-0.044	
3.0	0.0	0.0	0.0	0.0	-0.062	
4.0	0.0	0.0	0.0	0.0	-0.079	
5.0	0.0	0.0	0.0	0.0	-0.091	
6.0	0.0	0.0	0.0	0.0	-0.105	
7.0	0.0	0.0	0.0	0.0	-0.1	
8.0	0.0	0.0	0.0	0.0	-0.091	
9.0	0.0	0.0	0.0	0.0	-0.076	
10.0	0.0	0.0	0.0	0.0	-0.056	
11.0	0.0	0.0	0.0	0.0	-0.029	
12.0	0.0	0.0	0.0	0.0	-0.006	
13.0	0.0	0.0	0.0	0.0	0.012	
14.0	0.0	0.0	0.0	0.0	0.029	
15.0	0.0	0.0	0.0	0.0	0.038	
0.0	0.0	0.0	0.0	0.0	0.047	
1.0	0.0	0.0	0.0	0.0	0.044	
2.0	0.0	0.0	0.0	0.0	0.041	
3.0	0.0	0.0	0.0	0.0	0.026	
4.0	0.0	0.0	0.0	0.0	0.009	
5.0	0.0	0.0	0.0	0.0	-0.012	
6.0	0.0	0.0	0.0	0.0	-0.029	
7.0	0.0	0.0	0.0	0.0	-0.047	
8.0	0.0	0.0	0.0	0.0	-0.067	
9.0	0.0	0.0	0.0	0.0	-0.079	
10.0	0.0	0.0	0.0	0.0	-0.091	
11.0	0.0	0.0	0.0	0.0	-0.085	
12.0	0.0	0.0	0.0	0.0	-0.076	
13.0	0.0	0.0	0.0	0.0	-0.062	
14.0	0.0	0.0	0.0	0.0	-0.041	
15.0	0.0	0.0	0.0	0.0	-0.018	
0.0	0.0	0.0	0.0	0.0	0.003	
1.0	0.0	0.0	0.0	0.0	0.026	
2.0	0.0	0.0	0.0	0.0	0.044	
3.0	0.0	0.0	0.0	0.0	0.056	
4.0	0.0	0.0	0.0	0.0	0.053	
5.0	0.0	0.0	0.0	0.0	0.056	
6.0	0.0	0.0	0.0	0.0	0.05	
7.0	0.0	0.0	0.0	0.0	0.038	
8.0	0.0	0.0	0.0	0.0	0.023	
9.0	0.0	0.0	0.0	0.0	0.006	
10.0	0.0	0.0	0.0	0.0	-0.012	
11.0	0.0	0.0	0.0	0.0	-0.029	
12.0	0.0	0.0	0.0	0.0	-0.047	
13.0	0.0	0.0	0.0	0.0	-0.056	
14.0	0.0	0.0	0.0	0.0	-0.082	
15.0	0.0	0.0	0.0	0.0	-0.073	
0.0	0.0	0.0	0.0	0.0	-0.059	
1.0	0.0	0.0	0.0	0.0	-0.044	
2.0	0.0	0.0	0.0	0.0	-0.023	
3.0	0.0	0.0	0.0	0.0	0.0	
4.0	0.0	0.0	0.0	0.0	0.021	
5.0	0.0	0.0	0.0	0.0	0.044	
6.0	0.0	0.0	0.0	0.0	0.062	
7.0	0.0	0.0	0.0	0.0	0.073	
8.0	0.0	0.0	0.0	0.0	0.082	
9.0	0.0	0.0	0.0	0.0	0.082	
10.0	0.0	0.0	0.0	0.0	0.076	
11.0	0.0	0.0	0.0	0.0	0.062	
12.0	0.0	0.0	0.0	0.0	0.047	
13.0	0.0	0.0	0.0	0.0	0.029	
14.0	0.0	0.0	0.0	0.0	0.009	
15.0	0.0	0.0	0.0	0.0	-0.006	
0.0	0.0	0.0	0.0	0.0	-0.021	
1.0	0.0	0.0	0.0	0.0	-0.029	
2.0	0.0	0.0	0.0	0.0	-0.056	
3.0	0.0	0.0	0.0	0.0	-0.05	
4.0	0.0	0.0	0.0	0.0	-0.035	
5.0	0.0	0.0	0.0	0.0	-0.015	
6.0	0.0	0.0	0.0	0.0	0.009	
7.0	0.0	0.0	0.0	0.0	0.035	
8.0	0.0	0.0	0.0	0.0	0.056	
9.0	0.0	0.0	0.0	0.0	0.082	
10.0	0.0	0.0	0.0	0.0	0.1	
11.0	0.0	0.0	0.0	0.0	0.111	
12.0	0.0	0.0	0.0	0.0	0.117	
13.0	0.0	0.0	0.0	0.0	0.114	
14.0	0.0	0.0	0.0	0.0	0.1	
15.0	0.0	0.0	0.0	0.0	0.082	
0.0	0.0	0.0	0.0	0.0	0.064	
1.0	0.0	0.0	0.0	0.0	0.038	
2.0	0.0	0.0	0.0	0.0	0.018	
3.0	0.0	0.0	0.0	0.0	-0.003	
4.0	0.0	0.0	0.0	0.0	-0.021	
5.0	0.0	0.0	0.0	0.0	-0.032	
6.0	0.0	0.0	0.0	0.0	-0.056	
7.0	0.0	0.0	0.0	0.0	-0.05	
8.0	0.0	0.0	0.0	0.0	-0.038	
9.0	0.0	0.0	0.0	0.0	-0.021	
10.0	0.0	0.0	0.0	0.0	0.0	
11.0	0.0	0.0	0.0	0.0	0.023	
12.0	0.0	0.0	0.0	0.0	0.047	
13.0	0.0	0.0	0.0	0.0	0.07	
14.0	0.0	0.0	0.0	0.0	0.088	
15.0	0.0	0.0	0.0	0.0	0.097	
0.0	0.0	0.0	0.0	0.0	0.1	
1.0	0.0	0.0	0.0	0.0	0.094	
2.0	0.0	0.0	0.0	0.0	0.085	
3.0	0.0	0.0	0.0	0.0	0.07	
4.0	0.0	0.0	0.0	0.0	0.047	
5.0	0.0	0.0	0.0	0.0	0.026	
6.0	0.0	0.0	0.0	0.0	0.003	
7.0	0.0	0.0	0.0	0.0	-0.023	
8.0	0.0	0.0	0.0	0.0	-0.044	
9.0	0.0	0.0	0.0	0.0	-0.059	
10.0	0.0	0.0	0.0	0.0	-0.088	
11.0	0.0	0.0	0.0	0.0	-0.088	
12.0	0.0	0.0	0.0	0.0	-0.079	
13.0	0.0	0.0	0.0	0.0	-0.067	
14.0	0.0	0.0	0.0	0.0	-0.053	
15.0	0.0	0.0	0.0	0.0	-0.035	
0.0	0.0	0.0	0.0	0.0	-0.015	
1.0	0.0	0.0	0.0	0.0	0.006	
2.0	0.0	0.0	0.0	0.0	0.021	
3.0	0.0	0.0	0.0	0.0	0.029	
4.0	0.0	0.0	0.0	0.0	0.032	
5.0	0.0	0.0	0.0	0.0	0.032	
6.0	0.0	0.0	0.0	0.0	0.023	
7.0	0.0	0.0	0.0	0.0	0.006	
8.0	0.0	0.0	0.0	0.0	-0.015	
9.0	0.0	0.0	0.0	0.0	-0.038	
10.0	0.0	0.0	0.0	0.0	-0.062	
11.0	0.0	0.0	0.0	0.0	-0.085	
12.0	0.0	0.0	0.0	0.0	-0.103	
13.0	0.0	0.0	0.0	0.0	-0.117	
14.0	0.0	0.0	0.0	0.0	-0.146	
15.0	0.0	0.0	0.0	0.0	-0.144	
0.0	0.0	0.0	0.0	0.0	-0.132	
1.0	0.0	0.0	0.0	0.0	-0.114	
2.0	0.0	0.0	0.0	0.0	-0.094	
3.0	0.0	0.0	0.0	0.0	-0.073	
4.0	0.0	0.0	0.0	0.0	-0.047	
5.0	0.0	0.0	0.0	0.0	-0.026	
6.0	0.0	0.0	0.0	0.0	-0.012	
7.0	0.0	0.0	0.0	0.0	-0.003	
8.0	0.0	0.0	0.0	0.0	0.003	
9.0	0.0	0.0	0.0	0.0	0.0	
10.0	0.0	0.0	0.0	0.0	-0.009	
11.0	0.0	0.0	0.0	0.0	-0.021	
12.0	0.0	0.0	0.0	0.0	-0.038	
13.0	0.0	0.0	0.0	0.0	-0.059	
14.0	0.0	0.0	0.0	0.0	-0.076	
15.0	0.0	0.0	0.0	0.0	-0.094	
0.0	0.0	0.0	0.0	0.0	-0.111	
1.0	0.0	0.0	0.0	0.0	-0.123	
2.0	0.0	0.0	0.0	0.0	-0.144	
3.0	0.0	0.0	0.0	0.0	-0.141	
4.0	0.0	0.0	0.0	0.0	-0.129	
5.0	0.0	0.0	0.0	0.0	-0.108	
6.0	0.0	0.0	0.0	0.0	-0.091	
7.0	0.0	0.0	0.0	0.0	-0.064	
8.0	0.0	0.0	0.0	0.0	-0.041	
9.0	0.0	0.0	0.0	0.0	-0.018	
10.0	0.0	0.0	0.0	0.0	0.0	
11.0	0.0	0.0	0.0	0.0	0.012	
12.0	0.0	0.0	0.0	0.0	0.021	
13.0	0.0	0.0	0.0	0.0	0.021	
14.0	0.0	0.0	0.0	0.0	0.012	
15.0	0.0	0.0	0.0	0.0	0.0	
0.0	0.0	0.0	0.0	0.0	-0.018	
1.0	0.0	0.0	0.0	0.0	-0.035	
2.0	0.0	0.0	0.0	0.0	-0.056	
3.0	0.0	0.0	0.0	0.0	-0.076	
4.0	0.0	0.0	0.0	0.0	-0.094	
5.0	0.0	0.0	0.0	0.0	-0.103	
6.0	0.0	0.0	0.0	0.0	-0.129	
7.0	0.0	0.0	0.0	0.0	-0.123	
8.0	0.0	0.0	0.0	0.0	-0.108	
9.0	0.0	0.0	0.0	0.0	-0.094	
10.0	0.0	0.0	0.0	0.0	-0.073	
11.0	0.0	0.0	0.0	0.0	-0.047	
12.0	0.0	0.0	0.0	0.0	-0.023	
13.0	0.0	0.0	0.0	0.0	-0.003	
14.0	0.0	0.0	0.0	0.0	0.015	
15.0	0.0	0.0	0.0	0.0	0.029	
0.0	0.0	0.0	0.0	0.0	0.035	
1.0	0.0	0.0	0.0	0.0	0.032	
2.0	0.0	0.0	0.0	0.0	0.023	
3.0	0.0	0.0	0.0	0.0	0.015	
4.0	0.0	0.0	0.0	0.0	0.0	
5.0	0.0	0.0	0.0	0.0	-0.021	
6.0	0.0	0.0	0.0	0.0	-0.044	
7.0	0.0	0.0	0.0	0.0	-0.059	
8.0	0.0	0.0	0.0	0.0	-0.076	
9.0	0.0	0.0	0.0	0.0	-0.085	
10.0	0.0	0.0	0.0	0.0	-0.108	
11.0	0.0	0.0	0.0	0.0	-0.103	
12.0	0.0	0.0	0.0	0.0	-0.091	
13.0	0.0	0.0	0.0	0.0	-0.073	
14.0	0.0	0.0	0.0	0.0	-0.053	
15.0	0.0	0.0	0.0	0.0	-0.035	
0.0	0.0	0.0	0.0	0.0	-0.015	
1.0	0.0	0.0	0.0	0.0	0.003	
2.0	0.0	0.0	0.0	0.0	0.018	
3.0	0.0	0.0	0.0	0.0	0.026	
4.0	0.0	0.0	0.0	0.0	0.023	
5.0	0.0	0.0	0.0	0.0	0.021	
6.0	0.0	0.0	0.0	0.0	0.012	
7.0	0.0	0.0	0.0	0.0	-0.003	
8.0	0.0	0.0	0.0	0.0	-0.021	
9.0	0.0	0.0	0.0	0.0	-0.038	
10.0	0.0	0.0	0.0	0.0	-0.059	
11.0	0.0	0.0	0.0	0.0	-0.073	
12.0	0.0	0.0	0.0	0.0	-0.085	
13.0	0.0	0.0	0.0	0.0	-0.085	
14.0	0.0	0.0	0.0	0.0	-0.1	
15.0	0.0	0.0	0.0	0.0	-0.079	
0.0	0.0	0.0	0.0	0.0	-0.05	
1.0	0.0	0.0	0.0	0.0	-0.021	
2.0	0.0	0.0	0.0	0.0	0.021	
3.0	0.0	0.0	0.0	0.0	0.07	
4.0	0.0	0.0	0.0	0.0	0.123	
5.0	0.0	0.0	0.0	0.0	0.185	
6.0	0.0	0.0	0.0	0.0	0.24	
7.0	0.0	0.0	0.0	0.0	0.29	
8.0	0.0	0.0	0.0	0.0	0.334	
9.0	0.0	0.0	0.0	0.0	0.366	
10.0	0.0	0.0	0.0	0.0	0.384	
11.0	0.0	0.0	0.0	0.0	0.393	
12.0	0.0	0.0	0.0	0.0	0.396	
13.0	0.0	0.0	0.0	0.0	0.39	
14.0	0.0	0.0	0.0	0.0	0.387	
15.0	0.0	0.0	0.0	0.0	0.384	
0.0	0.0	0.0	0.0	0.0	0.378	
1.0	0.0	0.0	0.0	0.0	0.369	
2.0	0.0	0.0	0.0	0.0	0.343	
3.0	0.0	0.0	0.0	0.0	0.325	
4.0	0.0	0.0	0.0	0.0	0.299	
5.0	0.0	0.0	0.0	0.0	0.272	
6.0	0.0	0.0	0.0	0.0	0.258	
7.0	0.0	0.0	0.0	0.0	0.243	
8.0	0.0	0.0	0.0	0.0	0.229	
9.0	0.0	0.0	0.0	0.0	0.208	
10.0	0.0	0.0	0.0	0.0	0.182	
11.0	0.0	0.0	0.0	0.0	0.149	
12.0	0.0	0.0	0.0	0.0	0.111	
13.0	0.0	0.0	0.0	0.0	0.059	
14.0	0.0	0.0	0.0	0.0	0.0	
15.0	0.0	0.0	0.0	0.0	-0.062	
0.0	0.0	0.0	0.0	0.0	-0.126	
1.0	0.0	0.0	0.0	0.0	-0.188	
2.0	0.0	0.0	0.0	0.0	-0.234	
3.0	0.0	0.0	0.0	0.0	-0.275	
4.0	0.0	0.0	0.0	0.0	-0.305	
5.0	0.0	0.0	0.0	0.0	-0.325	
6.0	0.0	0.0	0.0	0.0	-0.354	
7.0	0.0	0.0	0.0	0.0	-0.352	
8.0	0.0	0.0	0.0	0.0	-0.334	
9.0	0.0	0.0	0.0	0.0	-0.311	
10.0	0.0	0.0	0.0	0.0	-0.278	
11.0	0.0	0.0	0.0	0.0	-0.237	
12.0	0.0	0.0	0.0	0.0	-0.193	
13.0	0.0	0.0	0.0	0.0	-0.149	
14.0	0.0	0.0	0.0	0.0	-0.114	
15.0	0.0	0.0	0.0	0.0	-0.085	
0.0	0.0	0.0	0.0	0.0	-0.064	
1.0	0.0	0.0	0.0	0.0	-0.053	
2.0	0.0	0.0	0.0	0.0	-0.047	
3.0	0.0	0.0	0.0	0.0	-0.047	
4.0	0.0	0.0	0.0	0.0	-0.056	
5.0	0.0	0.0	0.0	0.0	-0.07	
6.0	0.0	0.0	0.0	0.0	-0.085	
7.0	0.0	0.0	0.0	0.0	-0.103	
8.0	0.0	0.0	0.0	0.0	-0.111	
9.0	0.0	0.0	0.0	0.0	-0.117	
10.0	0.0	0.0	0.0	0.0	-0.132	
11.0	0.0	0.0	0.0	0.0	-0.12	
12.0	0.0	0.0	0.0	0.0	-0.108	
13.0	0.0	0.0	0.0	0.0	-0.091	
14.0	0.0	0.0	0.0	0.0	-0.07	
15.0	0.0	0.0	0.0	0.0	-0.047	
0.0	0.0	0.0	0.0	0.0	-0.023	
1.0	0.0	0.0	0.0	0.0	0.0	
2.0	0.0	0.0	0.0	0.0	0.021	
3.0	0.0	0.0	0.0	0.0	0.029	
4.0	0.0	0.0	0.0	0.0	0.038	
5.0	0.0	0.0	0.0	0.0	0.035	
6.0	0.0	0.0	0.0	0.0	0.026	
7.0	0.0	0.0	0.0	0.0	0.012	
8.0	0.0	0.0	0.0	0.0	-0.003	
9.0	0.0	0.0	0.0	0.0	-0.021	
10.0	0.0	0.0	0.0	0.0	-0.038	
11.0	0.0	0.0	0.0	0.0	-0.053	
12.0	0.0	0.0	0.0	0.0	-0.07	
13.0	0.0	0.0	0.0	0.0	-0.082	
14.0	0.0	0.0	0.0	0.0	-0.097	
15.0	0.0	0.0	0.0	0.0	-0.091	
0.0	0.0	0.0	0.0	0.0	-0.079	
1.0	0.0	0.0	0.0	0.0	-0.059	
2.0	0.0	0.0	0.0	0.0	-0.038	
3.0	0.0	0.0	0.0	0.0	-0.015	
4.0	0.0	0.0	0.0	0.0	0.009	
5.0	0.0	0.0	0.0	0.0	0.029	
6.0	0.0	0.0	0.0	0.0	0.047	
7.0	0.0	0.0	0.0	0.0	0.059	
8.0	0.0	0.0	0.0	0.0	0.064	
9.0	0.0	0.0	0.0	0.0	0.064	
10.0	0.0	0.0	0.0	0.0	0.059	
11.0	0.0	0.0	0.0	0.0	0.047	
12.0	0.0	0.0	0.0	0.0	0.029	
13.0	0.0	0.0	0.0	0.0	0.009	
14.0	0.0	0.0	0.0	0.0	-0.009	
15.0	0.0	0.0	0.0	0.0	-0.026	
0.0	0.0	0.0	0.0	0.0	-0.047	
1.0	0.0	0.0	0.0	0.0	-0.056	
2.0	0.0	0.0	0.0	0.0	-0.079	
3.0	0.0	0.0	0.0	0.0	-0.073	
4.0	0.0	0.0	0.0	0.0	-0.064	
5.0	0.0	0.0	0.0	0.0	-0.047	
6.0	0.0	0.0	0.0	0.0	-0.029	
7.0	0.0	0.0	0.0	0.0	-0.006	
8.0	0.0	0.0	0.0	0.0	0.015	
9.0	0.0	0.0	0.0	0.0	0.038	
10.0	0.0	0.0	0.0	0.0	0.056	
11.0	0.0	0.0	0.0	0.0	0.07	
12.0	0.0	0.0	0.0	0.0	0.076	
13.0	0.0	0.0	0.0	0.0	0.076	
14.0	0.0	0.0	0.0	0.0	0.067	
15.0	0.0	0.0	0.0	0.0	0.056	
0.0	0.0	0.0	0.0	0.0	0.038	
1.0	0.0	0.0	0.0	0.0	0.018	
2.0	0.0	0.0	0.0	0.0	-0.003	
3.0	0.0	0.0	0.0	0.0	-0.021	
4.0	0.0	0.0	0.0	0.0	-0.035	
5.0	0.0	0.0	0.0	0.0	-0.047	
6.0	0.0	0.0	0.0	0.0	-0.073	
7.0	0.0	0.0	0.0	0.0	-0.067	
8.0	0.0	0.0	0.0	0.0	-0.056	
9.0	0.0	0.0	0.0	0.0	-0.038	
10.0	0.0	0.0	0.0	0.0	-0.023	
11.0	0.0	0.0	0.0	0.0	0.0	
12.0	0.0	0.0	0.0	0.0	0.021	
13.0	0.0	0.0	0.0	0.0	0.044	
14.0	0.0	0.0	0.0	0.0	0.064	
15.0	0.0	0.0	0.0	0.0	0.076	
0.0	0.0	0.0	0.0	0.0	0.082	
1.0	0.0	0.0	0.0	0.0	0.082	
2.0	0.0	0.0	0.0	0.0	0.073	
3.0	0.0	0.0	0.0	0.0	0.062	
4.0	0.0	0.0	0.0	0.0	0.044	
5.0	0.0	0.0	0.0	0.0	0.023	
6.0	0.0	0.0	0.0	0.0	0.003	
7.0	0.0	0.0	0.0	0.0	-0.012	
8.0	0.0	0.0	0.0	0.0	-0.026	
9.0	0.0	0.0	0.0	0.0	-0.041	
10.0	0.0	0.0	0.0	0.0	-0.067	
11.0	0.0	0.0	0.0	0.0	-0.064	
12.0	0.0	0.0	0.0	0.0	-0.053	
13.0	0.0	0.0	0.0	0.0	-0.035	
14.0	0.0	0.0	0.0	0.0	-0.015	
15.0	0.0	0.0	0.0	0.0	0.012	
0.0	0.0	0.0	0.0	0.0	0.035	
1.0	0.0	0.0	0.0	0.0	0.056	
2.0	0.0	0.0	0.0	0.0	0.07	
3.0	0.0	0.0	0.0	0.0	0.082	
4.0	0.0	0.0	0.0	0.0	0.088	
5.0	0.0	0.0	0.0	0.0	0.085	
6.0	0.0	0.0	0.0	0.0	0.079	
7.0	0.0	0.0	0.0	0.0	0.067	
8.0	0.0	0.0	0.0	0.0	0.053	
9.0	0.0	0.0	0.0	0.0	0.035	
10.0	0.0	0.0	0.0	0.0	0.012	
11.0	0.0	0.0	0.0	0.0	-0.003	
12.0	0.0	0.0	0.0	0.0	-0.018	
13.0	0.0	0.0	0.0	0.0	-0.026	
14.0	0.0	0.0	0.0	0.0	-0.044	
15.0	0.0	0.0	0.0	0.0	-0.038	
0.0	0.0	0.0	0.0	0.0	-0.026	
1.0	0.0	0.0	0.0	0.0	-0.012	
2.0	0.0	0.0	0.0	0.0	0.009	
3.0	0.0	0.0	0.0	0.0	0.032	
4.0	0.0	0.0	0.0	0.0	0.056	
5.0	0.0	0.0	0.0	0.0	0.079	
6.0	0.0	0.0	0.0	0.0	0.097	
7.0	0.0	0.0	0.0	0.0	0.111	
8.0	0.0	0.0	0.0	0.0	0.117	
9.0	0.0	0.0	0.0	0.0	0.114	
10.0	0.0	0.0	0.0	0.0	0.111	
11.0	0.0	0.0	0.0	0.0	0.094	
12.0	0.0	0.0	0.0	0.0	0.076	
13.0	0.0	0.0	0.0	0.0	0.059	
14.0	0.0	0.0	0.0	0.0	0.041	
15.0	0.0	0.0	0.0	0.0	0.023	
0.0	0.0	0.0	0.0	0.0	0.006	
1.0	0.0	0.0	0.0	0.0	-0.003	
2.0	0.0	0.0	0.0	0.0	-0.032	
3.0	0.0	0.0	0.0	0.0	-0.026	
4.0	0.0	0.0	0.0	0.0	-0.015	
5.0	0.0	0.0	0.0	0.0	0.0	
6.0	0.0	0.0	0.0	0.0	0.021	
7.0	0.0	0.0	0.0	0.0	0.044	
8.0	0.0	0.0	0.0	0.0	0.07	
9.0	0.0	0.0	0.0	0.0	0.091	
10.0	0.0	0.0	0.0	0.0	0.108	
11.0	0.0	0.0	0.0	0.0	0.12	
12.0	0.0	0.0	0.0	0.0	0.135	
13.0	0.0	0.0	0.0	0.0	0.138	
14.0	0.0	0.0	0.0	0.0	0.129	
15.0	0.0	0.0	0.0	0.0	0.12	
0.0	0.0	0.0	0.0	0.0	0.103	
1.0	0.0	0.0	0.0	0.0	0.079	
2.0	0.0	0.0	0.0	0.0	0.059	
3.0	0.0	0.0	0.0	0.0	0.044	
4.0	0.0	0.0	0.0	0.0	0.032	
5.0	0.0	0.0	0.0	0.0	0.026	
6.0	0.0	0.0	0.0	0.0	0.021	
7.0	0.0	0.0	0.0	0.0	0.023	
8.0	0.0	0.0	0.0	0.0	0.032	
9.0	0.0	0.0	0.0	0.0	0.047	
10.0	0.0	0.0	0.0	0.0	0.07	
11.0	0.0	0.0	0.0	0.0	0.094	
12.0	0.0	0.0	0.0	0.0	0.117	
13.0	0.0	0.0	0.0	0.0	0.141	
14.0	0.0	0.0	0.0	0.0	0.155	
15.0	0.0	0.0	0.0	0.0	0.167	
0.0	0.0	0.0	0.0	0.0	0.17	
1.0	0.0	0.0	0.0	0.0	0.167	
2.0	0.0	0.0	0.0	0.0	0.158	
3.0	0.0	0.0	0.0	0.0	0.144	
4.0	0.0	0.0	0.0	0.0	0.126	
5.0	0.0	0.0	0.0	0.0	0.108	
6.0	0.0	0.0	0.0	0.0	0.091	
7.0	0.0	0.0	0.0	0.0	0.076	
8.0	0.0	0.0	0.0	0.0	0.059	
9.0	0.0	0.0	0.0	0.0	0.05	
10.0	0.0	0.0	0.0	0.0	0.035	
11.0	0.0	0.0	0.0	0.0	0.041	
12.0	0.0	0.0	0.0	0.0	0.05	
13.0	0.0	0.0	0.0	0.0	0.064	
14.0	0.0	0.0	0.0	0.0	0.085	
15.0	0.0	0.0	0.0	0.0	0.108	
0.0	0.0	0.0	0.0	0.0	0.129	
1.0	0.0	0.0	0.0	0.0	0.146	
2.0	0.0	0.0	0.0	0.0	0.164	
3.0	0.0	0.0	0.0	0.0	0.173	
4.0	0.0	0.0	0.0	0.0	0.182	
5.0	0.0	0.0	0.0	0.0	0.179	
6.0	0.0	0.0	0.0	0.0	0.167	
7.0	0.0	0.0	0.0	0.0	0.149	
8.0	0.0	0.0	0.0	0.0	0.132	
9.0	0.0	0.0	0.0	0.0	0.111	
10.0	0.0	0.0	0.0	0.0	0.088	
11.0	0.0	0.0	0.0	0.0	0.064	
12.0	0.0	0.0	0.0	0.0	0.044	
13.0	0.0	0.0	0.0	0.0	0.029	
14.0	0.0	0.0	0.0	0.0	0.012	
15.0	0.0	0.0	0.0	0.0	0.018	
0.0	0.0	0.0	0.0	0.0	0.029	
1.0	0.0	0.0	0.0	0.0	0.041	
2.0	0.0	0.0	0.0	0.0	0.056	
3.0	0.0	0.0	0.0	0.0	0.079	
4.0	0.0	0.0	0.0	0.0	0.1	
5.0	0.0	0.0	0.0	0.0	0.12	
6.0	0.0	0.0	0.0	0.0	0.138	
7.0	0.0	0.0	0.0	0.0	0.146	
8.0	0.0	0.0	0.0	0.0	0.152	
9.0	0.0	0.0	0.0	0.0	0.146	
10.0	0.0	0.0	0.0	0.0	0.138	
11.0	0.0	0.0	0.0	0.0	0.117	
12.0	0.0	0.0	0.0	0.0	0.1	
13.0	0.0	0.0	0.0	0.0	0.079	
14.0	0.0	0.0	0.0	0.0	0.056	
15.0	0.0	0.0	0.0	0.0	0.035	
0.0	0.0	0.0	0.0	0.0	0.018	
1.0	0.0	0.0	0.0	0.0	0.003	
2.0	0.0	0.0	0.0	0.0	-0.023	
3.0	0.0	0.0	0.0	0.0	-0.018	
4.0	0.0	0.0	0.0	0.0	-0.012	
5.0	0.0	0.0	0.0	0.0	0.003	
6.0	0.0	0.0	0.0	0.0	0.021	
7.0	0.0	0.0	0.0	0.0	0.041	
8.0	0.0	0.0	0.0	0.0	0.056	
9.0	0.0	0.0	0.0	0.0	0.076	
10.0	0.0	0.0	0.0	0.0	0.088	
11.0	0.0	0.0	0.0	0.0	0.094	
12.0	0.0	0.0	0.0	0.0	0.097	
13.0	0.0	0.0	0.0	0.0	0.091	
14.0	0.0	0.0	0.0	0.0	0.082	
15.0	0.0	0.0	0.0	0.0	0.067	
0.0	0.0	0.0	0.0	0.0	0.047	
1.0	0.0	0.0	0.0	0.0	0.021	
2.0	0.0	0.0	0.0	0.0	-0.003	
3.0	0.0	0.0	0.0	0.0	-0.023	
4.0	0.0	0.0	0.0	0.0	-0.047	
5.0	0.0	0.0	0.0	0.0	-0.064	
6.0	0.0	0.0	0.0	0.0	-0.082	
7.0	0.0	0.0	0.0	0.0	-0.082	
8.0	0.0	0.0	0.0	0.0	-0.076	
9.0	0.0	0.0	0.0	0.0	-0.067	
10.0	0.0	0.0	0.0	0.0	-0.053	
11.0	0.0	0.0	0.0	0.0	-0.035	
12.0	0.0	0.0	0.0	0.0	-0.021	
13.0	0.0	0.0	0.0	0.0	-0.003	
14.0	0.0	0.0	0.0	0.0	0.009	
15.0	0.0	0.0	0.0	0.0	0.012	
0.0	0.0	0.0	0.0	0.0	0.015	
1.0	0.0	0.0	0.0	0.0	0.009	
2.0	0.0	0.0	0.0	0.0	0.0	
3.0	0.0	0.0	0.0	0.0	-0.021	
4.0	0.0	0.0	0.0	0.0	-0.041	
5.0	0.0	0.0	0.0	0.0	-0.067	
6.0	0.0	0.0	0.0	0.0	-0.091	
7.0	0.0	0.0	0.0	0.0	-0.117	
8.0	0.0	0.0	0.0	0.0	-0.138	
9.0	0.0	0.0	0.0	0.0	-0.155	
10.0	0.0	0.0	0.0	0.0	-0.188	
11.0	0.0	0.0	0.0	0.0	-0.188	
12.0	0.0	0.0	0.0	0.0	-0.176	
13.0	0.0	0.0	0.0	0.0	-0.161	
14.0	0.0	0.0	0.0	0.0	-0.144	
15.0	0.0	0.0	0.0	0.0	-0.123	
0.0	0.0	0.0	0.0	0.0	-0.105	
1.0	0.0	0.0	0.0	0.0	-0.091	
2.0	0.0	0.0	0.0	0.0	-0.073	
3.0	0.0	0.0	0.0	0.0	-0.062	
4.0	0.0	0.0	0.0	0.0	-0.056	
5.0	0.0	0.0	0.0	0.0	-0.056	
6.0	0.0	0.0	0.0	0.0	-0.059	
7.0	0.0	0.0	0.0	0.0	-0.073	
8.0	0.0	0.0	0.0	0.0	-0.094	
9.0	0.0	0.0	0.0	0.0	-0.117	
10.0	0.0	0.0	0.0	0.0	-0.144	
11.0	0.0	0.0	0.0	0.0	-0.164	
12.0	0.0	0.0	0.0	0.0	-0.179	
13.0	0.0	0.0	0.0	0.0	-0.188	
14.0	0.0	0.0	0.0	0.0	-0.196	
15.0	0.0	0.0	0.0	0.0	-0.188	
0.0	0.0	0.0	0.0	0.0	-0.179	
1.0	0.0	0.0	0.0	0.0	-0.167	
2.0	0.0	0.0	0.0	0.0	-0.146	
3.0	0.0	0.0	0.0	0.0	-0.126	
4.0	0.0	0.0	0.0	0.0	-0.105	
5.0	0.0	0.0	0.0	0.0	-0.085	
6.0	0.0	0.0	0.0	0.0	-0.07	
7.0	0.0	0.0	0.0	0.0	-0.059	
8.0	0.0	0.0	0.0	0.0	-0.053	
9.0	0.0	0.0	0.0	0.0	-0.053	
10.0	0.0	0.0	0.0	0.0	-0.059	
11.0	0.0	0.0	0.0	0.0	-0.073	
12.0	0.0	0.0	0.0	0.0	-0.091	
13.0	0.0	0.0	0.0	0.0	-0.105	
14.0	0.0	0.0	0.0	0.0	-0.126	
15.0	0.0	0.0	0.0	0.0	-0.144	
0.0	0.0	0.0	0.0	0.0	-0.158	
1.0	0.0	0.0	0.0	0.0	-0.17	
2.0	0.0	0.0	0.0	0.0	-0.176	
3.0	0.0	0.0	0.0	0.0	-0.167	
4.0	0.0	0.0	0.0	0.0	-0.158	
5.0	0.0	0.0	0.0	0.0	-0.144	
6.0	0.0	0.0	0.0	0.0	-0.126	
7.0	0.0	0.0	0.0	0.0	-0.1	
8.0	0.0	0.0	0.0	0.0	-0.079	
9.0	0.0	0.0	0.0	0.0	-0.059	
10.0	0.0	0.0	0.0	0.0	-0.038	
11.0	0.0	0.0	0.0	0.0	-0.026	
12.0	0.0	0.0	0.0	0.0	-0.021	
13.0	0.0	0.0	0.0	0.0	-0.021	
14.0	0.0	0.0	0.0	0.0	-0.029	
15.0	0.0	0.0	0.0	0.0	-0.041	
0.0	0.0	0.0	0.0	0.0	-0.056	
1.0	0.0	0.0	0.0	0.0	-0.076	
2.0	0.0	0.0	0.0	0.0	-0.094	
3.0	0.0	0.0	0.0	0.0	-0.111	
4.0	0.0	0.0	0.0	0.0	-0.129	
5.0	0.0	0.0	0.0	0.0	-0.141	
6.0	0.0	0.0	0.0	0.0	-0.173	
7.0	0.0	0.0	0.0	0.0	-0.167	
8.0	0.0	0.0	0.0	0.0	-0.155	
9.0	0.0	0.0	0.0	0.0	-0.141	
10.0	0.0	0.0	0.0	0.0	-0.117	
11.0	0.0	0.0	0.0	0.0	-0.094	
12.0	0.0	0.0	0.0	0.0	-0.073	
13.0	0.0	0.0	0.0	0.0	-0.047	
14.0	0.0	0.0	0.0	0.0	-0.026	
15.0	0.0	0.0	0.0	0.0	-0.018	
0.0	0.0	0.0	0.0	0.0	-0.012	
1.0	0.0	0.0	0.0	0.0	-0.012	
2.0	0.0	0.0	0.0	0.0	-0.018	
3.0	0.0	0.0	0.0	0.0	-0.029	
4.0	0.0	0.0	0.0	0.0	-0.044	
5.0	0.0	0.0	0.0	0.0	-0.062	
6.0	0.0	0.0	0.0	0.0	-0.082	
7.0	0.0	0.0	0.0	0.0	-0.097	
8.0	0.0	0.0	0.0	0.0	-0.114	
9.0	0.0	0.0	0.0	0.0	-0.126	
10.0	0.0	0.0	0.0	0.0	-0.146	
11.0	0.0	0.0	0.0	0.0	-0.144	
12.0	0.0	0.0	0.0	0.0	-0.132	
13.0	0.0	0.0	0.0	0.0	-0.117	
14.0	0.0	0.0	0.0	0.0	-0.097	
15.0	0.0	0.0	0.0	0.0	-0.076	
0.0	0.0	0.0	0.0	0.0	-0.056	
1.0	0.0	0.0	0.0	0.0	-0.032	
2.0	0.0	0.0	0.0	0.0	-0.012	
3.0	0.0	0.0	0.0	0.0	0.003	
4.0	0.0	0.0	0.0	0.0	0.012	
5.0	0.0	0.0	0.0	0.0	0.012	
6.0	0.0	0.0	0.0	0.0	0.009	
7.0	0.0	0.0	0.0	0.0	0.0	
8.0	0.0	0.0	0.0	0.0	-0.021	
9.0	0.0	0.0	0.0	0.0	-0.041	
10.0	0.0	0.0	0.0	0.0	-0.062	
11.0	0.0	0.0	0.0	0.0	-0.082	
12.0	0.0	0.0	0.0	0.0	-0.103	
13.0	0.0	0.0	0.0	0.0	-0.114	
14.0	0.0	0.0	0.0	0.0	-0.135	
15.0	0.0	0.0	0.0	0.0	-0.126	
0.0	0.0	0.0	0.0	0.0	-0.114	
1.0	0.0	0.0	0.0	0.0	-0.1	
2.0	0.0	0.0	0.0	0.0	-0.076	
3.0	0.0	0.0	0.0	0.0	-0.05	
4.0	0.0	0.0	0.0	0.0	-0.029	
5.0	0.0	0.0	0.0	0.0	-0.009	
6.0	0.0	0.0	0.0	0.0	0.009	
7.0	0.0	0.0	0.0	0.0	0.021	
8.0	0.0	0.0	0.0	0.0	0.026	
9.0	0.0	0.0	0.0	0.0	0.026	
10.0	0.0	0.0	0.0	0.0	0.021	
11.0	0.0	0.0	0.0	0.0	0.006	
12.0	0.0	0.0	0.0	0.0	-0.009	
13.0	0.0	0.0	0.0	0.0	-0.026	
14.0	0.0	0.0	0.0	0.0	-0.047	
15.0	0.0	0.0	0.0	0.0	-0.067	
0.0	0.0	0.0	0.0	0.0	-0.082	
1.0	0.0	0.0	0.0	0.0	-0.091	
2.0	0.0	0.0	0.0	0.0	-0.103	
3.0	0.0	0.0	0.0	0.0	-0.1	
4.0	0.0	0.0	0.0	0.0	-0.094	
5.0	0.0	0.0	0.0	0.0	-0.076	
6.0	0.0	0.0	0.0	0.0	-0.059	
7.0	0.0	0.0	0.0	0.0	-0.038	
8.0	0.0	0.0	0.0	0.0	-0.015	
9.0	0.0	0.0	0.0	0.0	0.006	
10.0	0.0	0.0	0.0	0.0	0.021	
11.0	0.0	0.0	0.0	0.0	0.032	
12.0	0.0	0.0	0.0	0.0	0.038	
13.0	0.0	0.0	0.0	0.0	0.035	
14.0	0.0	0.0	0.0	0.0	0.026	
15.0	0.0	0.0	0.0	0.0	0.009	
0.0	0.0	0.0	0.0	0.0	-0.006	
1.0	0.0	0.0	0.0	0.0	-0.023	
2.0	0.0	0.0	0.0	0.0	-0.044	
3.0	0.0	0.0	0.0	0.0	-0.064	
4.0	0.0	0.0	0.0	0.0	-0.079	
5.0	0.0	0.0	0.0	0.0	-0.091	
6.0	0.0	0.0	0.0	0.0	-0.117	
7.0	0.0	0.0	0.0	0.0	-0.117	
8.0	0.0	0.0	0.0	0.0	-0.105	
9.0	0.0	0.0	0.0	0.0	-0.091	
10.0	0.0	0.0	0.0	0.0	-0.073	
11.0	0.0	0.0	0.0	0.0	-0.05	
12.0	0.0	0.0	0.0	0.0	-0.026	
13.0	0.0	0.0	0.0	0.0	-0.006	
14.0	0.0	0.0	0.0	0.0	0.012	
15.0	0.0	0.0	0.0	0.0	0.026	
0.0	0.0	0.0	0.0	0.0	0.035	
1.0	0.0	0.0	0.0	0.0	0.038	
2.0	0.0	0.0	0.0	0.0	0.035	
3.0	0.0	0.0	0.0	0.0	0.023	
4.0	0.0	0.0	0.0	0.0	0.006	
5.0	0.0	0.0	0.0	0.0	-0.012	
6.0	0.0	0.0	0.0	0.0	-0.032	
7.0	0.0	0.0	0.0	0.0	-0.047	
8.0	0.0	0.0	0.0	0.0	-0.062	
9.0	0.0	0.0	0.0	0.0	-0.07	
10.0	0.0	0.0	0.0	0.0	-0.079	
11.0	0.0	0.0	0.0	0.0	-0.076	
12.0	0.0	0.0	0.0	0.0	-0.064	
13.0	0.0	0.0	0.0	0.0	-0.047	
14.0	0.0	0.0	0.0	0.0	-0.029	
15.0	0.0	0.0	0.0	0.0	-0.012	
0.0	0.0	0.0	0.0	0.0	0.009	
1.0	0.0	0.0	0.0	0.0	0.032	
2.0	0.0	0.0	0.0	0.0	0.05	
3.0	0.0	0.0	0.0	0.0	0.064	
4.0	0.0	0.0	0.0	0.0	0.073	
5.0	0.0	0.0	0.0	0.0	0.073	
6.0	0.0	0.0	0.0	0.0	0.067	
7.0	0.0	0.0	0.0	0.0	0.059	
8.0	0.0	0.0	0.0	0.0	0.044	
9.0	0.0	0.0	0.0	0.0	0.023	
10.0	0.0	0.0	0.0	0.0	0.003	
11.0	0.0	0.0	0.0	0.0	-0.012	
12.0	0.0	0.0	0.0	0.0	-0.026	
13.0	0.0	0.0	0.0	0.0	-0.032	
14.0	0.0	0.0	0.0	0.0	-0.041	
15.0	0.0	0.0	0.0	0.0	-0.035	
0.0	0.0	0.0	0.0	0.0	-0.023	
1.0	0.0	0.0	0.0	0.0	-0.006	
2.0	0.0	0.0	0.0	0.0	0.015	
3.0	0.0	0.0	0.0	0.0	0.038	
4.0	0.0	0.0	0.0	0.0	0.064	
5.0	0.0	0.0	0.0	0.0	0.088	
6.0	0.0	0.0	0.0	0.0	0.105	
7.0	0.0	0.0	0.0	0.0	0.12	
8.0	0.0	0.0	0.0	0.0	0.129	
9.0	0.0	0.0	0.0	0.0	0.126	
10.0	0.0	0.0	0.0	0.0	0.114	
11.0	0.0	0.0	0.0	0.0	0.097	
12.0	0.0	0.0	0.0	0.0	0.073	
13.0	0.0	0.0	0.0	0.0	0.047	
14.0	0.0	0.0	0.0	0.0	0.026	
15.0	0.0	0.0	0.0	0.0	0.006	
0.0	0.0	0.0	0.0	0.0	-0.015	
1.0	0.0	0.0	0.0	0.0	-0.029	
2.0	0.0	0.0	0.0	0.0	-0.053	
3.0	0.0	0.0	0.0	0.0	-0.05	
4.0	0.0	0.0	0.0	0.0	-0.038	
5.0	0.0	0.0	0.0	0.0	-0.021	
6.0	0.0	0.0	0.0	0.0	0.0	
7.0	0.0	0.0	0.0	0.0	0.021	
8.0	0.0	0.0	0.0	0.0	0.044	
9.0	0.0	0.0	0.0	0.0	0.067	
10.0	0.0	0.0	0.0	0.0	0.088	
11.0	0.0	0.0	0.0	0.0	0.103	
12.0	0.0	0.0	0.0	0.0	0.103	
13.0	0.0	0.0	0.0	0.0	0.103	
14.0	0.0	0.0	0.0	0.0	0.094	
15.0	0.0	0.0	0.0	0.0	0.082	
0.0	0.0	0.0	0.0	0.0	0.062	
1.0	0.0	0.0	0.0	0.0	0.035	
2.0	0.0	0.0	0.0	0.0	0.015	
3.0	0.0	0.0	0.0	0.0	-0.003	
4.0	0.0	0.0	0.0	0.0	-0.026	
5.0	0.0	0.0	0.0	0.0	-0.038	
6.0	0.0	0.0	0.0	0.0	-0.059	
7.0	0.0	0.0	0.0	0.0	-0.059	
8.0	0.0	0.0	0.0	0.0	-0.05	
9.0	0.0	0.0	0.0	0.0	-0.038	
10.0	0.0	0.0	0.0	0.0	-0.023	
11.0	0.0	0.0	0.0	0.0	-0.009	
12.0	0.0	0.0	0.0	0.0	0.009	
13.0	0.0	0.0	0.0	0.0	0.029	
14.0	0.0	0.0	0.0	0.0	0.041	
15.0	0.0	0.0	0.0	0.0	0.05	
0.0	0.0	0.0	0.0	0.0	0.053	
1.0	0.0	0.0	0.0	0.0	0.05	
2.0	0.0	0.0	0.0	0.0	0.044	
3.0	0.0	0.0	0.0	0.0	0.029	
4.0	0.0	0.0	0.0	0.0	0.012	
5.0	0.0	0.0	0.0	0.0	-0.006	
6.0	0.0	0.0	0.0	0.0	-0.029	
7.0	0.0	0.0	0.0	0.0	-0.053	
8.0	0.0	0.0	0.0	0.0	-0.073	
9.0	0.0	0.0	0.0	0.0	-0.088	
10.0	0.0	0.0	0.0	0.0	-0.114	
11.0	0.0	0.0	0.0	0.0	-0.108	
12.0	0.0	0.0	0.0	0.0	-0.097	
13.0	0.0	0.0	0.0	0.0	-0.082	
14.0	0.0	0.0	0.0	0.0	-0.062	
15.0	0.0	0.0	0.0	0.0	-0.044	
0.0	0.0	0.0	0.0	0.0	-0.026	
1.0	0.0	0.0	0.0	0.0	-0.003	
2.0	0.0	0.0	0.0	0.0	0.015	
3.0	0.0	0.0	0.0	0.0	0.026	
4.0	0.0	0.0	0.0	0.0	0.035	
5.0	0.0	0.0	0.0	0.0	0.038	
6.0	0.0	0.0	0.0	0.0	0.035	
7.0	0.0	0.0	0.0	0.0	0.021	
8.0	0.0	0.0	0.0	0.0	0.003	
9.0	0.0	0.0	0.0	0.0	-0.015	
10.0	0.0	0.0	0.0	0.0	-0.038	
11.0	0.0	0.0	0.0	0.0	-0.056	
12.0	0.0	0.0	0.0	0.0	-0.073	
13.0	0.0	0.0	0.0	0.0	-0.082	
14.0	0.0	0.0	0.0	0.0	-0.097	
15.0	0.0	0.0	0.0	0.0	-0.091	
0.0	0.0	0.0	0.0	0.0	-0.082	
1.0	0.0	0.0	0.0	0.0	-0.064	
2.0	0.0	0.0	0.0	0.0	-0.047	
3.0	0.0	0.0	0.0	0.0	-0.026	
4.0	0.0	0.0	0.0	0.0	-0.003	
5.0	0.0	0.0	0.0	0.0	0.018	
6.0	0.0	0.0	0.0	0.0	0.032	
7.0	0.0	0.0	0.0	0.0	0.044	
8.0	0.0	0.0	0.0	0.0	0.044	
9.0	0.0	0.0	0.0	0.0	0.047	
10.0	0.0	0.0	0.0	0.0	0.041	
11.0	0.0	0.0	0.0	0.0	0.029	
12.0	0.0	0.0	0.0	0.0	0.015	
13.0	0.0	0.0	0.0	0.0	-0.006	
14.0	0.0	0.0	0.0	0.0	-0.023	
15.0	0.0	0.0	0.0	0.0	-0.041	
0.0	0.0	0.0	0.0	0.0	-0.056	
1.0	0.0	0.0	0.0	0.0	-0.067	
2.0	0.0	0.0	0.0	0.0	-0.097	
3.0	0.0	0.0	0.0	0.0	-0.094	
4.0	0.0	0.0	0.0	0.0	-0.085	
5.0	0.0	0.0	0.0	0.0	-0.07	
6.0	0.0	0.0	0.0	0.0	-0.047	
7.0	0.0	0.0	0.0	0.0	-0.023	
8.0	0.0	0.0	0.0	0.0	-0.006	
9.0	0.0	0.0	0.0	0.0	0.012	
10.0	0.0	0.0	0.0	0.0	0.026	
11.0	0.0	0.0	0.0	0.0	0.035	
12.0	0.0	0.0	0.0	0.0	0.044	
13.0	0.0	0.0	0.0	0.0	0.047	
14.0	0.0	0.0	0.0	0.0	0.044	
15.0	0.0	0.0	0.0	0.0	0.032	
0.0	0.0	0.0	0.0	0.0	0.015	
1.0	0.0	0.0	0.0	0.0	-0.006	
2.0	0.0	0.0	0.0	0.0	-0.026	
3.0	0.0	0.0	0.0	0.0	-0.047	
4.0	0.0	0.0	0.0	0.0	-0.064	
5.0	0.0	0.0	0.0	0.0	-0.076	
6.0	0.0	0.0	0.0	0.0	-0.094	
7.0	0.0	0.0	0.0	0.0	-0.091	
8.0	0.0	0.0	0.0	0.0	-0.079	
9.0	0.0	0.0	0.0	0.0	-0.064	
10.0	0.0	0.0	0.0	0.0	-0.044	
11.0	0.0	0.0	0.0	0.0	-0.021	
12.0	0.0	0.0	0.0	0.0	0.003	
13.0	0.0	0.0	0.0	0.0	0.021	
14.0	0.0	0.0	0.0	0.0	0.035	
15.0	0.0	0.0	0.0	0.0	0.047	
0.0	0.0	0.0	0.0	0.0	0.047	
1.0	0.0	0.0	0.0	0.0	0.044	
2.0	0.0	0.0	0.0	0.0	0.035	
3.0	0.0	0.0	0.0	0.0	0.021	
4.0	0.0	0.0	0.0	0.0	0.006	
5.0	0.0	0.0	0.0	0.0	-0.012	
6.0	0.0	0.0	0.0	0.0	-0.032	
7.0	0.0	0.0	0.0	0.0	-0.047	
8.0	0.0	0.0	0.0	0.0	-0.062	
9.0	0.0	0.0	0.0	0.0	-0.07	
10.0	0.0	0.0	0.0	0.0	-0.091	
11.0	0.0	0.0	0.0	0.0	-0.082	
12.0	0.0	0.0	0.0	0.0	-0.062	
13.0	0.0	0.0	0.0	0.0	-0.035	
14.0	0.0	0.0	0.0	0.0	-0.006	
15.0	0.0	0.0	0.0	0.0	0.026	
0.0	0.0	0.0	0.0	0.0	0.067	
1.0	0.0	0.0	0.0	0.0	0.108	
2.0	0.0	0.0	0.0	0.0	0.149	
3.0	0.0	0.0	0.0	0.0	0.193	
4.0	0.0	0.0	0.0	0.0	0.234	
5.0	0.0	0.0	0.0	0.0	0.264	
6.0	0.0	0.0	0.0	0.0	0.284	
7.0	0.0	0.0	0.0	0.0	0.302	
8.0	0.0	0.0	0.0	0.0	0.311	
9.0	0.0	0.0	0.0	0.0	0.311	
10.0	0.0	0.0	0.0	0.0	0.313	
11.0	0.0	0.0	0.0	0.0	0.311	
12.0	0.0	0.0	0.0	0.0	0.305	
13.0	0.0	0.0	0.0	0.0	0.299	
14.0	0.0	0.0	0.0	0.0	0.275	
15.0	0.0	0.0	0.0	0.0	0.29	
0.0	0.0	0.0	0.0	0.0	0.299	
1.0	0.0	0.0	0.0	0.0	0.296	
2.0	0.0	0.0	0.0	0.0	0.287	
3.0	0.0	0.0	0.0	0.0	0.281	
4.0	0.0	0.0	0.0	0.0	0.27	
5.0	0.0	0.0	0.0	0.0	0.261	
6.0	0.0	0.0	0.0	0.0	0.246	
7.0	0.0	0.0	0.0	0.0	0.223	
8.0	0.0	0.0	0.0	0.0	0.193	
9.0	0.0	0.0	0.0	0.0	0.155	
10.0	0.0	0.0	0.0	0.0	0.114	
11.0	0.0	0.0	0.0	0.0	0.059	
12.0	0.0	0.0	0.0	0.0	-0.003	
13.0	0.0	0.0	0.0	0.0	-0.067	
14.0	0.0	0.0	0.0	0.0	-0.129	
15.0	0.0	0.0	0.0	0.0	-0.19	
0.0	0.0	0.0	0.0	0.0	-0.24	
1.0	0.0	0.0	0.0	0.0	-0.272	
2.0	0.0	0.0	0.0	0.0	-0.311	
3.0	0.0	0.0	0.0	0.0	-0.316	
4.0	0.0	0.0	0.0	0.0	-0.305	
5.0	0.0	0.0	0.0	0.0	-0.284	
6.0	0.0	0.0	0.0	0.0	-0.261	
7.0	0.0	0.0	0.0	0.0	-0.231	
8.0	0.0	0.0	0.0	0.0	-0.202	
9.0	0.0	0.0	0.0	0.0	-0.176	
10.0	0.0	0.0	0.0	0.0	-0.146	
11.0	0.0	0.0	0.0	0.0	-0.117	
12.0	0.0	0.0	0.0	0.0	-0.097	
13.0	0.0	0.0	0.0	0.0	-0.085	
14.0	0.0	0.0	0.0	0.0	-0.079	
15.0	0.0	0.0	0.0	0.0	-0.076	
0.0	0.0	0.0	0.0	0.0	-0.073	
1.0	0.0	0.0	0.0	0.0	-0.079	
2.0	0.0	0.0	0.0	0.0	-0.088	
3.0	0.0	0.0	0.0	0.0	-0.097	
4.0	0.0	0.0	0.0	0.0	-0.105	
5.0	0.0	0.0	0.0	0.0	-0.111	
6.0	0.0	0.0	0.0	0.0	-0.126	
7.0	0.0	0.0	0.0	0.0	-0.117	
8.0	0.0	0.0	0.0	0.0	-0.105	
9.0	0.0	0.0	0.0	0.0	-0.094	
10.0	0.0	0.0	0.0	0.0	-0.073	
11.0	0.0	0.0	0.0	0.0	-0.056	
12.0	0.0	0.0	0.0	0.0	-0.029	
13.0	0.0	0.0	0.0	0.0	-0.006	
14.0	0.0	0.0	0.0	0.0	0.015	
15.0	0.0	0.0	0.0	0.0	0.032	
0.0	0.0	0.0	0.0	0.0	0.044	
1.0	0.0	0.0	0.0	0.0	0.044	
2.0	0.0	0.0	0.0	0.0	0.038	
3.0	0.0	0.0	0.0	0.0	0.023	
4.0	0.0	0.0	0.0	0.0	0.009	
5.0	0.0	0.0	0.0	0.0	-0.009	
6.0	0.0	0.0	0.0	0.0	-0.029	
7.0	0.0	0.0	0.0	0.0	-0.047	
8.0	0.0	0.0	0.0	0.0	-0.062	
9.0	0.0	0.0	0.0	0.0	-0.073	
10.0	0.0	0.0	0.0	0.0	-0.097	
11.0	0.0	0.0	0.0	0.0	-0.094	
12.0	0.0	0.0	0.0	0.0	-0.082	
13.0	0.0	0.0	0.0	0.0	-0.062	
14.0	0.0	0.0	0.0	0.0	-0.044	
15.0	0.0	0.0	0.0	0.0	-0.021	
0.0	0.0	0.0	0.0	0.0	-0.003	
1.0	0.0	0.0	0.0	0.0	0.021	
2.0	0.0	0.0	0.0	0.0	0.041	
3.0	0.0	0.0	0.0	0.0	0.053	
4.0	0.0	0.0	0.0	0.0	0.059	
5.0	0.0	0.0	0.0	0.0	0.059	
6.0	0.0	0.0	0.0	0.0	0.053	
7.0	0.0	0.0	0.0	0.0	0.041	
8.0	0.0	0.0	0.0	0.0	0.023	
9.0	0.0	0.0	0.0	0.0	0.003	
10.0	0.0	0.0	0.0	0.0	-0.012	
11.0	0.0	0.0	0.0	0.0	-0.029	
12.0	0.0	0.0	0.0	0.0	-0.05	
13.0	0.0	0.0	0.0	0.0	-0.059	
14.0	0.0	0.0	0.0	0.0	-0.079	
15.0	0.0	0.0	0.0	0.0	-0.073	
0.0	0.0	0.0	0.0	0.0	-0.067	
1.0	0.0	0.0	0.0	0.0	-0.053	
2.0	0.0	0.0	0.0	0.0	-0.035	
3.0	0.0	0.0	0.0	0.0	-0.012	
4.0	0.0	0.0	0.0	0.0	0.012	
5.0	0.0	0.0	0.0	0.0	0.035	
6.0	0.0	0.0	0.0	0.0	0.053	
7.0	0.0	0.0	0.0	0.0	0.064	
8.0	0.0	0.0	0.0	0.0	0.073	
9.0	0.0	0.0	0.0	0.0	0.073	
10.0	0.0	0.0	0.0	0.0	0.064	
11.0	0.0	0.0	0.0	0.0	0.053	
12.0	0.0	0.0	0.0	0.0	0.035	
13.0	0.0	0.0	0.0	0.0	0.018	
14.0	0.0	0.0	0.0	0.0	-0.003	
15.0	0.0	0.0	0.0	0.0	-0.023	
0.0	0.0	0.0	0.0	0.0	-0.038	
1.0	0.0	0.0	0.0	0.0	-0.05	
2.0	0.0	0.0	0.0	0.0	-0.067	
3.0	0.0	0.0	0.0	0.0	-0.059	
4.0	0.0	0.0	0.0	0.0	-0.047	
5.0	0.0	0.0	0.0	0.0	-0.035	
6.0	0.0	0.0	0.0	0.0	-0.015	
7.0	0.0	0.0	0.0	0.0	0.009	
8.0	0.0	0.0	0.0	0.0	0.026	
9.0	0.0	0.0	0.0	0.0	0.044	
10.0	0.0	0.0	0.0	0.0	0.064	
11.0	0.0	0.0	0.0	0.0	0.076	
12.0	0.0	0.0	0.0	0.0	0.079	
13.0	0.0	0.0	0.0	0.0	0.079	
14.0	0.0	0.0	0.0	0.0	0.07	
15.0	0.0	0.0	0.0	0.0	0.056	
0.0	0.0	0.0	0.0	0.0	0.041	
1.0	0.0	0.0	0.0	0.0	0.021	
2.0	0.0	0.0	0.0	0.0	0.006	
3.0	0.0	0.0	0.0	0.0	-0.015	
4.0	0.0	0.0	0.0	0.0	-0.029	
5.0	0.0	0.0	0.0	0.0	-0.044	
6.0	0.0	0.0	0.0	0.0	-0.067	
7.0	0.0	0.0	0.0	0.0	-0.062	
8.0	0.0	0.0	0.0	0.0	-0.05	
9.0	0.0	0.0	0.0	0.0	-0.035	
10.0	0.0	0.0	0.0	0.0	-0.015	
11.0	0.0	0.0	0.0	0.0	0.009	
12.0	0.0	0.0	0.0	0.0	0.029	
13.0	0.0	0.0	0.0	0.0	0.05	
14.0	0.0	0.0	0.0	0.0	0.07	
15.0	0.0	0.0	0.0	0.0	0.082	
0.0	0.0	0.0	0.0	0.0	0.088	
1.0	0.0	0.0	0.0	0.0	0.085	
2.0	0.0	0.0	0.0	0.0	0.079	
3.0	0.0	0.0	0.0	0.0	0.067	
4.0	0.0	0.0	0.0	0.0	0.053	
5.0	0.0	0.0	0.0	0.0	0.038	
6.0	0.0	0.0	0.0	0.0	0.018	
7.0	0.0	0.0	0.0	0.0	0.0	
8.0	0.0	0.0	0.0	0.0	-0.018	
9.0	0.0	0.0	0.0	0.0	-0.026	
10.0	0.0	0.0	0.0	0.0	-0.056	
11.0	0.0	0.0	0.0	0.0	-0.05	
12.0	0.0	0.0	0.0	0.0	-0.038	
13.0	0.0	0.0	0.0	0.0	-0.023	
14.0	0.0	0.0	0.0	0.0	0.0	
15.0	0.0	0.0	0.0	0.0	0.021	
0.0	0.0	0.0	0.0	0.0	0.044	
1.0	0.0	0.0	0.0	0.0	0.064	
2.0	0.0	0.0	0.0	0.0	0.082	
3.0	0.0	0.0	0.0	0.0	0.094	
4.0	0.0	0.0	0.0	0.0	0.1	
5.0	0.0	0.0	0.0	0.0	0.1	
6.0	0.0	0.0	0.0	0.0	0.091	
7.0	0.0	0.0	0.0	0.0	0.079	
8.0	0.0	0.0	0.0	0.0	0.064	
9.0	0.0	0.0	0.0	0.0	0.044	
10.0	0.0	0.0	0.0	0.0	0.026	
11.0	0.0	0.0	0.0	0.0	0.012	
12.0	0.0	0.0	0.0	0.0	-0.003	
13.0	0.0	0.0	0.0	0.0	-0.012	
14.0	0.0	0.0	0.0	0.0	-0.038	
15.0	0.0	0.0	0.0	0.0	-0.032	
0.0	0.0	0.0	0.0	0.0	-0.023	
1.0	0.0	0.0	0.0	0.0	-0.009	
2.0	0.0	0.0	0.0	0.0	0.009	
3.0	0.0	0.0	0.0	0.0	0.032	
4.0	0.0	0.0	0.0	0.0	0.053	
5.0	0.0	0.0	0.0	0.0	0.073	
6.0	0.0	0.0	0.0	0.0	0.094	
7.0	0.0	0.0	0.0	0.0	0.105	
8.0	0.0	0.0	0.0	0.0	0.114	
9.0	0.0	0.0	0.0	0.0	0.114	
10.0	0.0	0.0	0.0	0.0	0.105	
11.0	0.0	0.0	0.0	0.0	0.094	
12.0	0.0	0.0	0.0	0.0	0.082	
13.0	0.0	0.0	0.0	0.0	0.064	
14.0	0.0	0.0	0.0	0.0	0.047	
15.0	0.0	0.0	0.0	0.0	0.029	
0.0	0.0	0.0	0.0	0.0	0.018	
1.0	0.0	0.0	0.0	0.0	0.009	
2.0	0.0	0.0	0.0	0.0	-0.012	
3.0	0.0	0.0	0.0	0.0	-0.006	
4.0	0.0	0.0	0.0	0.0	0.003	
5.0	0.0	0.0	0.0	0.0	0.021	
6.0	0.0	0.0	0.0	0.0	0.041	
7.0	0.0	0.0	0.0	0.0	0.064	
8.0	0.0	0.0	0.0	0.0	0.088	
9.0	0.0	0.0	0.0	0.0	0.108	
10.0	0.0	0.0	0.0	0.0	0.126	
11.0	0.0	0.0	0.0	0.0	0.141	
12.0	0.0	0.0	0.0	0.0	0.146	
13.0	0.0	0.0	0.0	0.0	0.144	
14.0	0.0	0.0	0.0	0.0	0.138	
15.0	0.0	0.0	0.0	0.0	0.129	
0.0	0.0	0.0	0.0	0.0	0.111	
1.0	0.0	0.0	0.0	0.0	0.094	
2.0	0.0	0.0	0.0	0.0	0.073	
3.0	0.0	0.0	0.0	0.0	0.059	
4.0	0.0	0.0	0.0	0.0	0.044	
5.0	0.0	0.0	0.0	0.0	0.029	
6.0	0.0	0.0	0.0	0.0	0.009	
7.0	0.0	0.0	0.0	0.0	0.012	
8.0	0.0	0.0	0.0	0.0	0.023	
9.0	0.0	0.0	0.0	0.0	0.035	
10.0	0.0	0.0	0.0	0.0	0.053	
11.0	0.0	0.0	0.0	0.0	0.079	
12.0	0.0	0.0	0.0	0.0	0.1	
13.0	0.0	0.0	0.0	0.0	0.12	
14.0	0.0	0.0	0.0	0.0	0.138	
15.0	0.0	0.0	0.0	0.0	0.149	
0.0	0.0	0.0	0.0	0.0	0.158	
1.0	0.0	0.0	0.0	0.0	0.158	
2.0	0.0	0.0	0.0	0.0	0.152	
3.0	0.0	0.0	0.0	0.0	0.138	
4.0	0.0	0.0	0.0	0.0	0.12	
5.0	0.0	0.0	0.0	0.0	0.103	
6.0	0.0	0.0	0.0	0.0	0.082	
7.0	0.0	0.0	0.0	0.0	0.062	
8.0	0.0	0.0	0.0	0.0	0.044	
9.0	0.0	0.0	0.0	0.0	0.032	
10.0	0.0	0.0	0.0	0.0	0.015	
11.0	0.0	0.0	0.0	0.0	0.015	
12.0	0.0	0.0	0.0	0.0	0.021	
13.0	0.0	0.0	0.0	0.0	0.035	
14.0	0.0	0.0	0.0	0.0	0.05	
15.0	0.0	0.0	0.0	0.0	0.07	
0.0	0.0	0.0	0.0	0.0	0.091	
1.0	0.0	0.0	0.0	0.0	0.111	
2.0	0.0	0.0	0.0	0.0	0.129	
3.0	0.0	0.0	0.0	0.0	0.138	
4.0	0.0	0.0	0.0	0.0	0.141	
5.0	0.0	0.0	0.0	0.0	0.138	
6.0	0.0	0.0	0.0	0.0	0.129	
7.0	0.0	0.0	0.0	0.0	0.117	
8.0	0.0	0.0	0.0	0.0	0.097	
9.0	0.0	0.0	0.0	0.0	0.076	
10.0	0.0	0.0	0.0	0.0	0.056	
11.0	0.0	0.0	0.0	0.0	0.038	
12.0	0.0	0.0	0.0	0.0	0.021	
13.0	0.0	0.0	0.0	0.0	0.009	
14.0	0.0	0.0	0.0	0.0	-0.018	
15.0	0.0	0.0	0.0	0.0	-0.015	
0.0	0.0	0.0	0.0	0.0	-0.006	
1.0	0.0	0.0	0.0	0.0	0.006	
2.0	0.0	0.0	0.0	0.0	0.023	
3.0	0.0	0.0	0.0	0.0	0.044	
4.0	0.0	0.0	0.0	0.0	0.062	
5.0	0.0	0.0	0.0	0.0	0.079	
6.0	0.0	0.0	0.0	0.0	0.091	
7.0	0.0	0.0	0.0	0.0	0.103	
8.0	0.0	0.0	0.0	0.0	0.105	
9.0	0.0	0.0	0.0	0.0	0.097	
10.0	0.0	0.0	0.0	0.0	0.085	
11.0	0.0	0.0	0.0	0.0	0.07	
12.0	0.0	0.0	0.0	0.0	0.047	
13.0	0.0	0.0	0.0	0.0	0.026	
14.0	0.0	0.0	0.0	0.0	0.0	
15.0	0.0	0.0	0.0	0.0	-0.023	
0.0	0.0	0.0	0.0	0.0	-0.044	
1.0	0.0	0.0	0.0	0.0	-0.059	
2.0	0.0	0.0	0.0	0.0	-0.085	
3.0	0.0	0.0	0.0	0.0	-0.085	
4.0	0.0	0.0	0.0	0.0	-0.079	
5.0	0.0	0.0	0.0	0.0	-0.067	
6.0	0.0	0.0	0.0	0.0	-0.053	
7.0	0.0	0.0	0.0	0.0	-0.035	
8.0	0.0	0.0	0.0	0.0	-0.018	
9.0	0.0	0.0	0.0	0.0	-0.003	
10.0	0.0	0.0	0.0	0.0	0.009	
11.0	0.0	0.0	0.0	0.0	0.018	
12.0	0.0	0.0	0.0	0.0	0.021	
13.0	0.0	0.0	0.0	0.0	0.015	
14.0	0.0	0.0	0.0	0.0	0.003	
15.0	0.0	0.0	0.0	0.0	-0.012	
0.0	0.0	0.0	0.0	0.0	-0.026	
1.0	0.0	0.0	0.0	0.0	-0.047	
2.0	0.0	0.0	0.0	0.0	-0.07	
3.0	0.0	0.0	0.0	0.0	-0.094	
4.0	0.0	0.0	0.0	0.0	-0.117	
5.0	0.0	0.0	0.0	0.0	-0.132	
6.0	0.0	0.0	0.0	0.0	-0.152	
7.0	0.0	0.0	0.0	0.0	-0.152	
8.0	0.0	0.0	0.0	0.0	-0.146	
9.0	0.0	0.0	0.0	0.0	-0.135	
10.0	0.0	0.0	0.0	0.0	-0.123	
11.0	0.0	0.0	0.0	0.0	-0.108	
12.0	0.0	0.0	0.0	0.0	-0.091	
13.0	0.0	0.0	0.0	0.0	-0.073	
14.0	0.0	0.0	0.0	0.0	-0.056	
15.0	0.0	0.0	0.0	0.0	-0.047	
0.0	0.0	0.0	0.0	0.0	-0.038	
1.0	0.0	0.0	0.0	0.0	-0.044	
2.0	0.0	0.0	0.0	0.0	-0.053	
3.0	0.0	0.0	0.0	0.0	-0.067	
4.0	0.0	0.0	0.0	0.0	-0.082	
5.0	0.0	0.0	0.0	0.0	-0.105	
6.0	0.0	0.0	0.0	0.0	-0.126	
7.0	0.0	0.0	0.0	0.0	-0.146	
8.0	0.0	0.0	0.0	0.0	-0.164	
9.0	0.0	0.0	0.0	0.0	-0.176	
10.0	0.0	0.0	0.0	0.0	-0.199	
11.0	0.0	0.0	0.0	0.0	-0.196	
12.0	0.0	0.0	0.0	0.0	-0.188	
13.0	0.0	0.0	0.0	0.0	-0.17	
14.0	0.0	0.0	0.0	0.0	-0.152	
15.0	0.0	0.0	0.0	0.0	-0.129	
0.0	0.0	0.0	0.0	0.0	-0.108	
1.0	0.0	0.0	0.0	0.0	-0.091	
2.0	0.0	0.0	0.0	0.0	-0.073	
3.0	0.0	0.0	0.0	0.0	-0.059	
4.0	0.0	0.0	0.0	0.0	-0.053	
5.0	0.0	0.0	0.0	0.0	-0.053	
6.0	0.0	0.0	0.0	0.0	-0.056	
7.0	0.0	0.0	0.0	0.0	-0.067	
8.0	0.0	0.0	0.0	0.0	-0.082	
9.0	0.0	0.0	0.0	0.0	-0.103	
10.0	0.0	0.0	0.0	0.0	-0.12	
11.0	0.0	0.0	0.0	0.0	-0.138	
12.0	0.0	0.0	0.0	0.0	-0.152	
13.0	0.0	0.0	0.0	0.0	-0.164	
14.0	0.0	0.0	0.0	0.0	-0.179	
15.0	0.0	0.0	0.0	0.0	-0.176	
0.0	0.0	0.0	0.0	0.0	-0.164	
1.0	0.0	0.0	0.0	0.0	-0.149	
2.0	0.0	0.0	0.0	0.0	-0.132	
3.0	0.0	0.0	0.0	0.0	-0.108	
4.0	0.0	0.0	0.0	0.0	-0.088	
5.0	0.0	0.0	0.0	0.0	-0.067	
6.0	0.0	0.0	0.0	0.0	-0.047	
7.0	0.0	0.0	0.0	0.0	-0.038	
8.0	0.0	0.0	0.0	0.0	-0.029	
9.0	0.0	0.0	0.0	0.0	-0.029	
10.0	0.0	0.0	0.0	0.0	-0.038	
11.0	0.0	0.0	0.0	0.0	-0.047	
12.0	0.0	0.0	0.0	0.0	-0.062	
13.0	0.0	0.0	0.0	0.0	-0.079	
14.0	0.0	0.0	0.0	0.0	-0.1	
15.0	0.0	0.0	0.0	0.0	-0.114	
0.0	0.0	0.0	0.0	0.0	-0.132	
1.0	0.0	0.0	0.0	0.0	-0.141	
2.0	0.0	0.0	0.0	0.0	-0.152	
3.0	0.0	0.0	0.0	0.0	-0.146	
4.0	0.0	0.0	0.0	0.0	-0.138	
5.0	0.0	0.0	0.0	0.0	-0.123	
6.0	0.0	0.0	0.0	0.0	-0.105	
7.0	0.0	0.0	0.0	0.0	-0.082	
8.0	0.0	0.0	0.0	0.0	-0.059	
9.0	0.0	0.0	0.0	0.0	-0.035	
10.0	0.0	0.0	0.0	0.0	-0.015	
11.0	0.0	0.0	0.0	0.0	-0.003	
12.0	0.0	0.0	0.0	0.0	0.006	
13.0	0.0	0.0	0.0	0.0	0.006	
14.0	0.0	0.0	0.0	0.0	0.0	
15.0	0.0	0.0	0.0	0.0	-0.012	
0.0	0.0	0.0	0.0	0.0	-0.026	
1.0	0.0	0.0	0.0	0.0	-0.044	
2.0	0.0	0.0	0.0	0.0	-0.064	
3.0	0.0	0.0	0.0	0.0	-0.082	
4.0	0.0	0.0	0.0	0.0	-0.097	
5.0	0.0	0.0	0.0	0.0	-0.108	
6.0	0.0	0.0	0.0	0.0	-0.126	
7.0	0.0	0.0	0.0	0.0	-0.123	
8.0	0.0	0.0	0.0	0.0	-0.111	
9.0	0.0	0.0	0.0	0.0	-0.1	
10.0	0.0	0.0	0.0	0.0	-0.079	
11.0	0.0	0.0	0.0	0.0	-0.053	
12.0	0.0	0.0	0.0	0.0	-0.032	
13.0	0.0	0.0	0.0	0.0	-0.012	
14.0	0.0	0.0	0.0	0.0	0.009	
15.0	0.0	0.0	0.0	0.0	0.018	
0.0	0.0	0.0	0.0	0.0	0.026	
1.0	0.0	0.0	0.0	0.0	0.021	
2.0	0.0	0.0	0.0	0.0	0.018	
3.0	0.0	0.0	0.0	0.0	0.006	
4.0	0.0	0.0	0.0	0.0	-0.009	
5.0	0.0	0.0	0.0	0.0	-0.026	
6.0	0.0	0.0	0.0	0.0	-0.047	
7.0	0.0	0.0	0.0	0.0	-0.064	
8.0	0.0	0.0	0.0	0.0	-0.085	
9.0	0.0	0.0	0.0	0.0	-0.097	
10.0	0.0	0.0	0.0	0.0	-0.12	
11.0	0.0	0.0	0.0	0.0	-0.117	
12.0	0.0	0.0	0.0	0.0	-0.108	
13.0	0.0	0.0	0.0	0.0	-0.097	
14.0	0.0	0.0	0.0	0.0	-0.073	
15.0	0.0	0.0	0.0	0.0	-0.05	
0.0	0.0	0.0	0.0	0.0	-0.026	
1.0	0.0	0.0	0.0	0.0	-0.006	
2.0	0.0	0.0	0.0	0.0	0.012	
3.0	0.0	0.0	0.0	0.0	0.021	
4.0	0.0	0.0	0.0	0.0	0.023	
5.0	0.0	0.0	0.0	0.0	0.023	
6.0	0.0	0.0	0.0	0.0	0.018	
7.0	0.0	0.0	0.0	0.0	0.006	
8.0	0.0	0.0	0.0	0.0	-0.012	
9.0	0.0	0.0	0.0	0.0	-0.032	
10.0	0.0	0.0	0.0	0.0	-0.047	
11.0	0.0	0.0	0.0	0.0	-0.067	
12.0	0.0	0.0	0.0	0.0	-0.082	
13.0	0.0	0.0	0.0	0.0	-0.094	
14.0	0.0	0.0	0.0	0.0	-0.1	
15.0	0.0	0.0	0.0	0.0	-0.1	
0.0	0.0	0.0	0.0	0.0	-0.088	
1.0	0.0	0.0	0.0	0.0	-0.073	
2.0	0.0	0.0	0.0	0.0	-0.056	
3.0	0.0	0.0	0.0	0.0	-0.035	
4.0	0.0	0.0	0.0	0.0	-0.015	
5.0	0.0	0.0	0.0	0.0	0.006	
6.0	0.0	0.0	0.0	0.0	0.021	
7.0	0.0	0.0	0.0	0.0	0.032	
8.0	0.0	0.0	0.0	0.0	0.035	
9.0	0.0	0.0	0.0	0.0	0.032	
10.0	0.0	0.0	0.0	0.0	0.026	
11.0	0.0	0.0	0.0	0.0	0.018	
12.0	0.0	0.0	0.0	0.0	0.003	
13.0	0.0	0.0	0.0	0.0	-0.018	
14.0	0.0	0.0	0.0	0.0	-0.035	
15.0	0.0	0.0	0.0	0.0	-0.053	
0.0	0.0	0.0	0.0	0.0	-0.067	
1.0	0.0	0.0	0.0	0.0	-0.076	
2.0	0.0	0.0	0.0	0.0	-0.103	
3.0	0.0	0.0	0.0	0.0	-0.097	
4.0	0.0	0.0	0.0	0.0	-0.082	
5.0	0.0	0.0	0.0	0.0	-0.064	
6.0	0.0	0.0	0.0	0.0	-0.047	
7.0	0.0	0.0	0.0	0.0	-0.023	
8.0	0.0	0.0	0.0	0.0	-0.003	
9.0	0.0	0.0	0.0	0.0	0.021	
10.0	0.0	0.0	0.0	0.0	0.041	
11.0	0.0	0.0	0.0	0.0	0.05	
12.0	0.0	0.0	0.0	0.0	0.056	
13.0	0.0	0.0	0.0	0.0	0.056	
14.0	0.0	0.0	0.0	0.0	0.05	
15.0	0.0	0.0	0.0	0.0	0.038	
0.0	0.0	0.0	0.0	0.0	0.023	
1.0	0.0	0.0	0.0	0.0	0.006	
2.0	0.0	0.0	0.0	0.0	-0.006	
3.0	0.0	0.0	0.0	0.0	-0.023	
4.0	0.0	0.0	0.0	0.0	-0.038	
5.0	0.0	0.0	0.0	0.0	-0.047	
6.0	0.0	0.0	0.0	0.0	-0.076	
7.0	0.0	0.0	0.0	0.0	-0.073	
8.0	0.0	0.0	0.0	0.0	-0.064	
9.0	0.0	0.0	0.0	0.0	-0.047	
10.0	0.0	0.0	0.0	0.0	-0.026	
11.0	0.0	0.0	0.0	0.0	0.0	
12.0	0.0	0.0	0.0	0.0	0.023	
13.0	0.0	0.0	0.0	0.0	0.047	
14.0	0.0	0.0	0.0	0.0	0.064	
15.0	0.0	0.0	0.0	0.0	0.079	
0.0	0.0	0.0	0.0	0.0	0.088	
1.0	0.0	0.0	0.0	0.0	0.088	
2.0	0.0	0.0	0.0	0.0	0.085	
3.0	0.0	0.0	0.0	0.0	0.073	
4.0	0.0	0.0	0.0	0.0	0.059	
5.0	0.0	0.0	0.0	0.0	0.041	
6.0	0.0	0.0	0.0	0.0	0.021	
7.0	0.0	0.0	0.0	0.0	0.0	
8.0	0.0	0.0	0.0	0.0	-0.021	
9.0	0.0	0.0	0.0	0.0	-0.035	
10.0	0.0	0.0	0.0	0.0	-0.056	
11.0	0.0	0.0	0.0	0.0	-0.053	
12.0	0.0	0.0	0.0	0.0	-0.044	
13.0	0.0	0.0	0.0	0.0	-0.032	
14.0	0.0	0.0	0.0	0.0	-0.012	
15.0	0.0	0.0	0.0	0.0	0.009	
0.0	0.0	0.0	0.0	0.0	0.026	
1.0	0.0	0.0	0.0	0.0	0.044	
2.0	0.0	0.0	0.0	0.0	0.064	
3.0	0.0	0.0	0.0	0.0	0.076	
4.0	0.0	0.0	0.0	0.0	0.082	
5.0	0.0	0.0	0.0	0.0	0.082	
6.0	0.0	0.0	0.0	0.0	0.073	
7.0	0.0	0.0	0.0	0.0	0.064	
8.0	0.0	0.0	0.0	0.0	0.05	
9.0	0.0	0.0	0.0	0.0	0.032	
10.0	0.0	0.0	0.0	0.0	0.009	
11.0	0.0	0.0	0.0	0.0	-0.012	
12.0	0.0	0.0	0.0	0.0	-0.029	
13.0	0.0	0.0	0.0	0.0	-0.044	
14.0	0.0	0.0	0.0	0.0	-0.064	
15.0	0.0	0.0	0.0	0.0	-0.062	
0.0	0.0	0.0	0.0	0.0	-0.056	
1.0	0.0	0.0	0.0	0.0	-0.044	
2.0	0.0	0.0	0.0	0.0	-0.029	
3.0	0.0	0.0	0.0	0.0	-0.009	
4.0	0.0	0.0	0.0	0.0	0.012	
5.0	0.0	0.0	0.0	0.0	0.035	
6.0	0.0	0.0	0.0	0.0	0.047	
7.0	0.0	0.0	0.0	0.0	0.056	
8.0	0.0	0.0	0.0	0.0	0.059	
9.0	0.0	0.0	0.0	0.0	0.053	
10.0	0.0	0.0	0.0	0.0	0.041	
11.0	0.0	0.0	0.0	0.0	0.026	
12.0	0.0	0.0	0.0	0.0	0.003	
13.0	0.0	0.0	0.0	0.0	-0.021	
14.0	0.0	0.0	0.0	0.0	-0.041	
15.0	0.0	0.0	0.0	0.0	-0.062	
0.0	0.0	0.0	0.0	0.0	-0.082	
1.0	0.0	0.0	0.0	0.0	-0.094	
2.0	0.0	0.0	0.0	0.0	-0.117	
3.0	0.0	0.0	0.0	0.0	-0.117	
4.0	0.0	0.0	0.0	0.0	-0.111	
5.0	0.0	0.0	0.0	0.0	-0.1	
6.0	0.0	0.0	0.0	0.0	-0.085	
7.0	0.0	0.0	0.0	0.0	-0.067	
8.0	0.0	0.0	0.0	0.0	-0.047	
9.0	0.0	0.0	0.0	0.0	-0.026	
10.0	0.0	0.0	0.0	0.0	-0.012	
11.0	0.0	0.0	0.0	0.0	0.0	
12.0	0.0	0.0	0.0	0.0	0.009	
13.0	0.0	0.0	0.0	0.0	0.006	
14.0	0.0	0.0	0.0	0.0	0.0	
15.0	0.0	0.0	0.0	0.0	-0.012	
0.0	0.0	0.0	0.0	0.0	-0.026	
1.0	0.0	0.0	0.0	0.0	-0.047	
2.0	0.0	0.0	0.0	0.0	-0.067	
3.0	0.0	0.0	0.0	0.0	-0.085	
4.0	0.0	0.0	0.0	0.0	-0.1	
5.0	0.0	0.0	0.0	0.0	-0.111	
6.0	0.0	0.0	0.0	0.0	-0.141	
7.0	0.0	0.0	0.0	0.0	-0.138	
8.0	0.0	0.0	0.0	0.0	-0.129	
9.0	0.0	0.0	0.0	0.0	-0.111	
10.0	0.0	0.0	0.0	0.0	-0.091	
11.0	0.0	0.0	0.0	0.0	-0.07	
12.0	0.0	0.0	0.0	0.0	-0.05	
13.0	0.0	0.0	0.0	0.0	-0.029	
14.0	0.0	0.0	0.0	0.0	-0.012	
15.0	0.0	0.0	0.0	0.0	0.003	
0.0	0.0	0.0	0.0	0.0	0.012	
1.0	0.0	0.0	0.0	0.0	0.009	
2.0	0.0	0.0	0.0	0.0	0.003	
3.0	0.0	0.0	0.0	0.0	-0.009	
4.0	0.0	0.0	0.0	0.0	-0.023	
5.0	0.0	0.0	0.0	0.0	-0.047	
6.0	0.0	0.0	0.0	0.0	-0.067	
7.0	0.0	0.0	0.0	0.0	-0.085	
8.0	0.0	0.0	0.0	0.0	-0.097	
9.0	0.0	0.0	0.0	0.0	-0.108	
10.0	0.0	0.0	0.0	0.0	-0.135	
11.0	0.0	0.0	0.0	0.0	-0.129	
12.0	0.0	0.0	0.0	0.0	-0.117	
13.0	0.0	0.0	0.0	0.0	-0.103	
14.0	0.0	0.0	0.0	0.0	-0.082	
15.0	0.0	0.0	0.0	0.0	-0.059	
0.0	0.0	0.0	0.0	0.0	-0.038	
1.0	0.0	0.0	0.0	0.0	-0.015	
2.0	0.0	0.0	0.0	0.0	0.003	
3.0	0.0	0.0	0.0	0.0	0.018	
4.0	0.0	0.0	0.0	0.0	0.029	
5.0	0.0	0.0	0.0	0.0	0.032	
6.0	0.0	0.0	0.0	0.0	0.026	
7.0	0.0	0.0	0.0	0.0	0.012	
8.0	0.0	0.0	0.0	0.0	-0.003	
9.0	0.0	0.0	0.0	0.0	-0.029	
10.0	0.0	0.0	0.0	0.0	-0.05	
11.0	0.0	0.0	0.0	0.0	-0.07	
12.0	0.0	0.0	0.0	0.0	-0.085	
13.0	0.0	0.0	0.0	0.0	-0.094	
14.0	0.0	0.0	0.0	0.0	-0.117	
15.0	0.0	0.0	0.0	0.0	-0.108	
0.0	0.0	0.0	0.0	0.0	-0.097	
1.0	0.0	0.0	0.0	0.0	-0.085	
2.0	0.0	0.0	0.0	0.0	-0.067	
3.0	0.0	0.0	0.0	0.0	-0.044	
4.0	0.0	0.0	0.0	0.0	-0.023	
5.0	0.0	0.0	0.0	0.0	-0.003	
6.0	0.0	0.0	0.0	0.0	0.015	
7.0	0.0	0.0	0.0	0.0	0.029	
8.0	0.0	0.0	0.0	0.0	0.035	
9.0	0.0	0.0	0.0	0.0	0.035	
10.0	0.0	0.0	0.0	0.0	0.029	
11.0	0.0	0.0	0.0	0.0	0.018	
12.0	0.0	0.0	0.0	0.0	0.0	
13.0	0.0	0.0	0.0	0.0	-0.021	
14.0	0.0	0.0	0.0	0.0	-0.044	
15.0	0.0	0.0	0.0	0.0	-0.062	
0.0	0.0	0.0	0.0	0.0	-0.076	
1.0	0.0	0.0	0.0	0.0	-0.094	
2.0	0.0	0.0	0.0	0.0	-0.117	
3.0	0.0	0.0	0.0	0.0	-0.114	
4.0	0.0	0.0	0.0	0.0	-0.103	
5.0	0.0	0.0	0.0	0.0	-0.091	
6.0	0.0	0.0	0.0	0.0	-0.07	
7.0	0.0	0.0	0.0	0.0	-0.05	
8.0	0.0	0.0	0.0	0.0	-0.029	
9.0	0.0	0.0	0.0	0.0	-0.009	
10.0	0.0	0.0	0.0	0.0	0.018	
11.0	0.0	0.0	0.0	0.0	0.041	
12.0	0.0	0.0	0.0	0.0	0.056	
13.0	0.0	0.0	0.0	0.0	0.07	
14.0	0.0	0.0	0.0	0.0	0.079	
15.0	0.0	0.0	0.0	0.0	0.082	
0.0	0.0	0.0	0.0	0.0	0.085	
1.0	0.0	0.0	0.0	0.0	0.091	
2.0	0.0	0.0	0.0	0.0	0.1	
3.0	0.0	0.0	0.0	0.0	0.114	
4.0	0.0	0.0	0.0	0.0	0.135	
5.0	0.0	0.0	0.0	0.0	0.158	
6.0	0.0	0.0	0.0	0.0	0.155	
7.0	0.0	0.0	0.0	0.0	0.185	
8.0	0.0	0.0	0.0	0.0	0.22	
9.0	0.0	0.0	0.0	0.0	0.258	
10.0	0.0	0.0	0.0	0.0	0.293	
11.0	0.0	0.0	0.0	0.0	0.328	
12.0	0.0	0.0	0.0	0.0	0.36	
13.0	0.0	0.0	0.0	0.0	0.396	
14.0	0.0	0.0	0.0	0.0	0.425	
15.0	0.0	0.0	0.0	0.0	0.442	
0.0	0.0	0.0	0.0	0.0	0.437	
1.0	0.0	0.0	0.0	0.0	0.41	
2.0	0.0	0.0	0.0	0.0	0.372	
3.0	0.0	0.0	0.0	0.0	0.328	
4.0	0.0	0.0	0.0	0.0	0.281	
5.0	0.0	0.0	0.0	0.0	0.226	
6.0	0.0	0.0	0.0	0.0	0.173	
7.0	0.0	0.0	0.0	0.0	0.114	
8.0	0.0	0.0	0.0	0.0	0.056	
9.0	0.0	0.0	0.0	0.0	0.003	
10.0	0.0	0.0	0.0	0.0	-0.062	
11.0	0.0	0.0	0.0	0.0	-0.105	
12.0	0.0	0.0	0.0	0.0	-0.146	
13.0	0.0	0.0	0.0	0.0	-0.179	
14.0	0.0	0.0	0.0	0.0	-0.199	
15.0	0.0	0.0	0.0	0.0	-0.211	
0.0	0.0	0.0	0.0	0.0	-0.211	
1.0	0.0	0.0	0.0	0.0	-0.208	
2.0	0.0	0.0	0.0	0.0	-0.196	
3.0	0.0	0.0	0.0	0.0	-0.188	
4.0	0.0	0.0	0.0	0.0	-0.176	
5.0	0.0	0.0	0.0	0.0	-0.173	
6.0	0.0	0.0	0.0	0.0	-0.176	
7.0	0.0	0.0	0.0	0.0	-0.182	
8.0	0.0	0.0	0.0	0.0	-0.188	
9.0	0.0	0.0	0.0	0.0	-0.196	
10.0	0.0	0.0	0.0	0.0	-0.202	
11.0	0.0	0.0	0.0	0.0	-0.208	
12.0	0.0	0.0	0.0	0.0	-0.211	
13.0	0.0	0.0	0.0	0.0	-0.205	
14.0	0.0	0.0	0.0	0.0	-0.208	
15.0	0.0	0.0	0.0	0.0	-0.188	
0.0	0.0	0.0	0.0	0.0	-0.164	
1.0	0.0	0.0	0.0	0.0	-0.141	
2.0	0.0	0.0	0.0	0.0	-0.108	
3.0	0.0	0.0	0.0	0.0	-0.076	
4.0	0.0	0.0	0.0	0.0	-0.047	
5.0	0.0	0.0	0.0	0.0	-0.018	
6.0	0.0	0.0	0.0	0.0	0.003	
7.0	0.0	0.0	0.0	0.0	0.018	
8.0	0.0	0.0	0.0	0.0	0.023	
9.0	0.0	0.0	0.0	0.0	0.023	
10.0	0.0	0.0	0.0	0.0	0.018	
11.0	0.0	0.0	0.0	0.0	0.006	
12.0	0.0	0.0	0.0	0.0	-0.009	
13.0	0.0	0.0	0.0	0.0	-0.023	
14.0	0.0	0.0	0.0	0.0	-0.044	
15.0	0.0	0.0	0.0	0.0	-0.059	
0.0	0.0	0.0	0.0	0.0	-0.073	
1.0	0.0	0.0	0.0	0.0	-0.079	
2.0	0.0	0.0	0.0	0.0	-0.097	
3.0	0.0	0.0	0.0	0.0	-0.091	
4.0	0.0	0.0	0.0	0.0	-0.079	
5.0	0.0	0.0	0.0	0.0	-0.064	
6.0	0.0	0.0	0.0	0.0	-0.047	
7.0	0.0	0.0	0.0	0.0	-0.026	
8.0	0.0	0.0	0.0	0.0	-0.006	
9.0	0.0	0.0	0.0	0.0	0.015	
10.0	0.0	0.0	0.0	0.0	0.035	
11.0	0.0	0.0	0.0	0.0	0.047	
12.0	0.0	0.0	0.0	0.0	0.053	
13.0	0.0	0.0	0.0	0.0	0.053	
14.0	0.0	0.0	0.0	0.0	0.047	
15.0	0.0	0.0	0.0	0.0	0.035	
0.0	0.0	0.0	0.0	0.0	0.021	
1.0	0.0	0.0	0.0	0.0	0.003	
2.0	0.0	0.0	0.0	0.0	-0.012	
3.0	0.0	0.0	0.0	0.0	-0.032	
4.0	0.0	0.0	0.0	0.0	-0.053	
5.0	0.0	0.0	0.0	0.0	-0.062	
6.0	0.0	0.0	0.0	0.0	-0.088	
7.0	0.0	0.0	0.0	0.0	-0.079	
8.0	0.0	0.0	0.0	0.0	-0.067	
9.0	0.0	0.0	0.0	0.0	-0.056	
10.0	0.0	0.0	0.0	0.0	-0.038	
11.0	0.0	0.0	0.0	0.0	-0.015	
12.0	0.0	0.0	0.0	0.0	0.009	
13.0	0.0	0.0	0.0	0.0	0.029	
14.0	0.0	0.0	0.0	0.0	0.05	
15.0	0.0	0.0	0.0	0.0	0.064	
0.0	0.0	0.0	0.0	0.0	0.073	
1.0	0.0	0.0	0.0	0.0	0.073	
2.0	0.0	0.0	0.0	0.0	0.064	
3.0	0.0	0.0	0.0	0.0	0.05	
4.0	0.0	0.0	0.0	0.0	0.035	
5.0	0.0	0.0	0.0	0.0	0.018	
6.0	0.0	0.0	0.0	0.0	0.003	
7.0	0.0	0.0	0.0	0.0	-0.015	
8.0	0.0	0.0	0.0	0.0	-0.032	
9.0	0.0	0.0	0.0	0.0	-0.044	
10.0	0.0	0.0	0.0	0.0	-0.053	
11.0	0.0	0.0	0.0	0.0	-0.047	
12.0	0.0	0.0	0.0	0.0	-0.035	
13.0	0.0	0.0	0.0	0.0	-0.018	
14.0	0.0	0.0	0.0	0.0	0.0	
15.0	0.0	0.0	0.0	0.0	0.015	
0.0	0.0	0.0	0.0	0.0	0.038	
1.0	0.0	0.0	0.0	0.0	0.056	
2.0	0.0	0.0	0.0	0.0	0.073	
3.0	0.0	0.0	0.0	0.0	0.085	
4.0	0.0	0.0	0.0	0.0	0.091	
5.0	0.0	0.0	0.0	0.0	0.088	
6.0	0.0	0.0	0.0	0.0	0.079	
7.0	0.0	0.0	0.0	0.0	0.067	
8.0	0.0	0.0	0.0	0.0	0.05	
9.0	0.0	0.0	0.0	0.0	0.029	
10.0	0.0	0.0	0.0	0.0	0.009	
11.0	0.0	0.0	0.0	0.0	-0.012	
12.0	0.0	0.0	0.0	0.0	-0.026	
13.0	0.0	0.0	0.0	0.0	-0.038	
14.0	0.0	0.0	0.0	0.0	-0.067	
15.0	0.0	0.0	0.0	0.0	-0.062	
0.0	0.0	0.0	0.0	0.0	-0.05	
1.0	0.0	0.0	0.0	0.0	-0.035	
2.0	0.0	0.0	0.0	0.0	-0.018	
3.0	0.0	0.0	0.0	0.0	0.006	
4.0	0.0	0.0	0.0	0.0	0.026	
5.0	0.0	0.0	0.0	0.0	0.047	
6.0	0.0	0.0	0.0	0.0	0.064	
7.0	0.0	0.0	0.0	0.0	0.082	
8.0	0.0	0.0	0.0	0.0	0.094	
9.0	0.0	0.0	0.0	0.0	0.097	
10.0	0.0	0.0	0.0	0.0	0.094	
11.0	0.0	0.0	0.0	0.0	0.079	
12.0	0.0	0.0	0.0	0.0	0.062	
13.0	0.0	0.0	0.0	0.0	0.044	
14.0	0.0	0.0	0.0	0.0	0.026	
15.0	0.0	0.0	0.0	0.0	0.006	
0.0	0.0	0.0	0.0	0.0	-0.015	
1.0	0.0	0.0	0.0	0.0	-0.029	
2.0	0.0	0.0	0.0	0.0	-0.056	
3.0	0.0	0.0	0.0	0.0	-0.053	
4.0	0.0	0.0	0.0	0.0	-0.044	
5.0	0.0	0.0	0.0	0.0	-0.029	
6.0	0.0	0.0	0.0	0.0	-0.009	
7.0	0.0	0.0	0.0	0.0	0.009	
8.0	0.0	0.0	0.0	0.0	0.032	
9.0	0.0	0.0	0.0	0.0	0.053	
10.0	0.0	0.0	0.0	0.0	0.07	
11.0	0.0	0.0	0.0	0.0	0.085	
12.0	0.0	0.0	0.0	0.0	0.094	
13.0	0.0	0.0	0.0	0.0	0.094	
14.0	0.0	0.0	0.0	0.0	0.094	
15.0	0.0	0.0	0.0	0.0	0.088	
0.0	0.0	0.0	0.0	0.0	0.073	
1.0	0.0	0.0	0.0	0.0	0.05	
2.0	0.0	0.0	0.0	0.0	0.032	
3.0	0.0	0.0	0.0	0.0	0.012	
4.0	0.0	0.0	0.0	0.0	-0.003	
5.0	0.0	0.0	0.0	0.0	-0.006	
6.0	0.0	0.0	0.0	0.0	-0.029	
7.0	0.0	0.0	0.0	0.0	-0.023	
8.0	0.0	0.0	0.0	0.0	-0.015	
9.0	0.0	0.0	0.0	0.0	-0.003	
10.0	0.0	0.0	0.0	0.0	0.015	
11.0	0.0	0.0	0.0	0.0	0.035	
12.0	0.0	0.0	0.0	0.0	0.062	
13.0	0.0	0.0	0.0	0.0	0.082	
14.0	0.0	0.0	0.0	0.0	0.103	
15.0	0.0	0.0	0.0	0.0	0.114	
0.0	0.0	0.0	0.0	0.0	0.126	
1.0	0.0	0.0	0.0	0.0	0.126	
2.0	0.0	0.0	0.0	0.0	0.117	
3.0	0.0	0.0	0.0	0.0	0.105	
4.0	0.0	0.0	0.0	0.0	0.091	
5.0	0.0	0.0	0.0	0.0	0.073	
6.0	0.0	0.0	0.0	0.0	0.056	
7.0	0.0	0.0	0.0	0.0	0.038	
8.0	0.0	0.0	0.0	0.0	0.021	
9.0	0.0	0.0	0.0	0.0	0.009	
10.0	0.0	0.0	0.0	0.0	-0.015	
11.0	0.0	0.0	0.0	0.0	-0.009	
12.0	0.0	0.0	0.0	0.0	0.0	
13.0	0.0	0.0	0.0	0.0	0.015	
14.0	0.0	0.0	0.0	0.0	0.035	
15.0	0.0	0.0	0.0	0.0	0.059	
0.0	0.0	0.0	0.0	0.0	0.082	
1.0	0.0	0.0	0.0	0.0	0.1	
2.0	0.0	0.0	0.0	0.0	0.12	
3.0	0.0	0.0	0.0	0.0	0.135	
4.0	0.0	0.0	0.0	0.0	0.144	
5.0	0.0	0.0	0.0	0.0	0.144	
6.0	0.0	0.0	0.0	0.0	0.141	
7.0	0.0	0.0	0.0	0.0	0.132	
8.0	0.0	0.0	0.0	0.0	0.117	
9.0	0.0	0.0	0.0	0.0	0.103	
10.0	0.0	0.0	0.0	0.0	0.082	
11.0	0.0	0.0	0.0	0.0	0.064	
12.0	0.0	0.0	0.0	0.0	0.047	
13.0	0.0	0.0	0.0	0.0	0.035	
14.0	0.0	0.0	0.0	0.0	0.009	
15.0	0.0	0.0	0.0	0.0	0.012	
0.0	0.0	0.0	0.0	0.0	0.021	
1.0	0.0	0.0	0.0	0.0	0.038	
2.0	0.0	0.0	0.0	0.0	0.056	
3.0	0.0	0.0	0.0	0.0	0.079	
4.0	0.0	0.0	0.0	0.0	0.1	
5.0	0.0	0.0	0.0	0.0	0.123	
6.0	0.0	0.0	0.0	0.0	0.144	
7.0	0.0	0.0	0.0	0.0	0.158	
8.0	0.0	0.0	0.0	0.0	0.17	
9.0	0.0	0.0	0.0	0.0	0.17	
10.0	0.0	0.0	0.0	0.0	0.164	
11.0	0.0	0.0	0.0	0.0	0.149	
12.0	0.0	0.0	0.0	0.0	0.138	
13.0	0.0	0.0	0.0	0.0	0.12	
14.0	0.0	0.0	0.0	0.0	0.097	
15.0	0.0	0.0	0.0	0.0	0.073	
0.0	0.0	0.0	0.0	0.0	0.05	
1.0	0.0	0.0	0.0	0.0	0.035	
2.0	0.0	0.0	0.0	0.0	0.006	
3.0	0.0	0.0	0.0	0.0	0.009	
4.0	0.0	0.0	0.0	0.0	0.018	
5.0	0.0	0.0	0.0	0.0	0.029	
6.0	0.0	0.0	0.0	0.0	0.047	
7.0	0.0	0.0	0.0	0.0	0.067	
8.0	0.0	0.0	0.0	0.0	0.088	
9.0	0.0	0.0	0.0	0.0	0.105	
10.0	0.0	0.0	0.0	0.0	0.126	
11.0	0.0	0.0	0.0	0.0	0.135	
12.0	0.0	0.0	0.0	0.0	0.141	
13.0	0.0	0.0	0.0	0.0	0.141	
14.0	0.0	0.0	0.0	0.0	0.132	
15.0	0.0	0.0	0.0	0.0	0.117	
0.0	0.0	0.0	0.0	0.0	0.1	
1.0	0.0	0.0	0.0	0.0	0.079	
2.0	0.0	0.0	0.0	0.0	0.059	
3.0	0.0	0.0	0.0	0.0	0.038	
4.0	0.0	0.0	0.0	0.0	0.021	
5.0	0.0	0.0	0.0	0.0	0.009	
6.0	0.0	0.0	0.0	0.0	-0.012	
7.0	0.0	0.0	0.0	0.0	-0.009	
8.0	0.0	0.0	0.0	0.0	0.003	
9.0	0.0	0.0	0.0	0.0	0.018	
10.0	0.0	0.0	0.0	0.0	0.035	
11.0	0.0	0.0	0.0	0.0	0.056	
12.0	0.0	0.0	0.0	0.0	0.076	
13.0	0.0	0.0	0.0	0.0	0.097	
14.0	0.0	0.0	0.0	0.0	0.114	
15.0	0.0	0.0	0.0	0.0	0.123	
0.0	0.0	0.0	0.0	0.0	0.129	
1.0	0.0	0.0	0.0	0.0	0.12	
2.0	0.0	0.0	0.0	0.0	0.111	
3.0	0.0	0.0	0.0	0.0	0.094	
4.0	0.0	0.0	0.0	0.0	0.073	
5.0	0.0	0.0	0.0	0.0	0.047	
6.0	0.0	0.0	0.0	0.0	0.021	
7.0	0.0	0.0	0.0	0.0	0.0	
8.0	0.0	0.0	0.0	0.0	-0.021	
9.0	0.0	0.0	0.0	0.0	-0.035	
10.0	0.0	0.0	0.0	0.0	-0.064	
11.0	0.0	0.0	0.0	0.0	-0.064	
12.0	0.0	0.0	0.0	0.0	-0.059	
13.0	0.0	0.0	0.0	0.0	-0.047	
14.0	0.0	0.0	0.0	0.0	-0.029	
15.0	0.0	0.0	0.0	0.0	-0.012	
0.0	0.0	0.0	0.0	0.0	0.006	
1.0	0.0	0.0	0.0	0.0	0.026	
2.0	0.0	0.0	0.0	0.0	0.041	
3.0	0.0	0.0	0.0	0.0	0.044	
4.0	0.0	0.0	0.0	0.0	0.047	
5.0	0.0	0.0	0.0	0.0	0.038	
6.0	0.0	0.0	0.0	0.0	0.023	
7.0	0.0	0.0	0.0	0.0	0.006	
8.0	0.0	0.0	0.0	0.0	-0.012	
9.0	0.0	0.0	0.0	0.0	-0.035	
10.0	0.0	0.0	0.0	0.0	-0.059	
11.0	0.0	0.0	0.0	0.0	-0.082	
12.0	0.0	0.0	0.0	0.0	-0.103	
13.0	0.0	0.0	0.0	0.0	-0.117	
14.0	0.0	0.0	0.0	0.0	-0.146	
15.0	0.0	0.0	0.0	0.0	-0.146	
0.0	0.0	0.0	0.0	0.0	-0.144	
1.0	0.0	0.0	0.0	0.0	-0.129	
2.0	0.0	0.0	0.0	0.0	-0.114	
3.0	0.0	0.0	0.0	0.0	-0.1	
4.0	0.0	0.0	0.0	0.0	-0.085	
5.0	0.0	0.0	0.0	0.0	-0.062	
6.0	0.0	0.0	0.0	0.0	-0.044	
7.0	0.0	0.0	0.0	0.0	-0.032	
8.0	0.0	0.0	0.0	0.0	-0.032	
9.0	0.0	0.0	0.0	0.0	-0.035	
10.0	0.0	0.0	0.0	0.0	-0.044	
11.0	0.0	0.0	0.0	0.0	-0.059	
12.0	0.0	0.0	0.0	0.0	-0.082	
13.0	0.0	0.0	0.0	0.0	-0.103	
14.0	0.0	0.0	0.0	0.0	-0.123	
15.0	0.0	0.0	0.0	0.0	-0.141	
0.0	0.0	0.0	0.0	0.0	-0.158	
1.0	0.0	0.0	0.0	0.0	-0.17	
2.0	0.0	0.0	0.0	0.0	-0.193	
3.0	0.0	0.0	0.0	0.0	-0.19	
4.0	0.0	0.0	0.0	0.0	-0.185	
5.0	0.0	0.0	0.0	0.0	-0.17	
6.0	0.0	0.0	0.0	0.0	-0.152	
7.0	0.0	0.0	0.0	0.0	-0.129	
8.0	0.0	0.0	0.0	0.0	-0.105	
9.0	0.0	0.0	0.0	0.0	-0.085	
10.0	0.0	0.0	0.0	0.0	-0.07	
11.0	0.0	0.0	0.0	0.0	-0.056	
12.0	0.0	0.0	0.0	0.0	-0.047	
13.0	0.0	0.0	0.0	0.0	-0.05	
14.0	0.0	0.0	0.0	0.0	-0.059	
15.0	0.0	0.0	0.0	0.0	-0.073	
0.0	0.0	0.0	0.0	0.0	-0.091	
1.0	0.0	0.0	0.0	0.0	-0.114	
2.0	0.0	0.0	0.0	0.0	-0.123	
3.0	0.0	0.0	0.0	0.0	-0.141	
4.0	0.0	0.0	0.0	0.0	-0.155	
5.0	0.0	0.0	0.0	0.0	-0.164	
6.0	0.0	0.0	0.0	0.0	-0.188	
7.0	0.0	0.0	0.0	0.0	-0.185	
8.0	0.0	0.0	0.0	0.0	-0.182	
9.0	0.0	0.0	0.0	0.0	-0.173	
10.0	0.0	0.0	0.0	0.0	-0.152	
11.0	0.0	0.0	0.0	0.0	-0.123	
12.0	0.0	0.0	0.0	0.0	-0.103	
13.0	0.0	0.0	0.0	0.0	-0.082	
14.0	0.0	0.0	0.0	0.0	-0.059	
15.0	0.0	0.0	0.0	0.0	-0.044	
0.0	0.0	0.0	0.0	0.0	-0.032	
1.0	0.0	0.0	0.0	0.0	-0.029	
2.0	0.0	0.0	0.0	0.0	-0.035	
3.0	0.0	0.0	0.0	0.0	-0.044	
4.0	0.0	0.0	0.0	0.0	-0.059	
5.0	0.0	0.0	0.0	0.0	-0.073	
6.0	0.0	0.0	0.0	0.0	-0.094	
7.0	0.0	0.0	0.0	0.0	-0.114	
8.0	0.0	0.0	0.0	0.0	-0.132	
9.0	0.0	0.0	0.0	0.0	-0.144	
10.0	0.0	0.0	0.0	0.0	-0.173	
11.0	0.0	0.0	0.0	0.0	-0.167	
12.0	0.0	0.0	0.0	0.0	-0.155	
13.0	0.0	0.0	0.0	0.0	-0.138	
14.0	0.0	0.0	0.0	0.0	-0.12	
15.0	0.0	0.0	0.0	0.0	-0.097	
0.0	0.0	0.0	0.0	0.0	-0.076	
1.0	0.0	0.0	0.0	0.0	-0.053	
2.0	0.0	0.0	0.0	0.0	-0.032	
3.0	0.0	0.0	0.0	0.0	-0.018	
4.0	0.0	0.0	0.0	0.0	-0.012	
5.0	0.0	0.0	0.0	0.0	-0.009	
6.0	0.0	0.0	0.0	0.0	-0.012	
7.0	0.0	0.0	0.0	0.0	-0.023	
8.0	0.0	0.0	0.0	0.0	-0.038	
9.0	0.0	0.0	0.0	0.0	-0.059	
10.0	0.0	0.0	0.0	0.0	-0.073	
11.0	0.0	0.0	0.0	0.0	-0.094	
12.0	0.0	0.0	0.0	0.0	-0.111	
13.0	0.0	0.0	0.0	0.0	-0.123	
14.0	0.0	0.0	0.0	0.0	-0.144	
15.0	0.0	0.0	0.0	0.0	-0.141	
0.0	0.0	0.0	0.0	0.0	-0.129	
1.0	0.0	0.0	0.0	0.0	-0.111	
2.0	0.0	0.0	0.0	0.0	-0.091	
3.0	0.0	0.0	0.0	0.0	-0.062	
4.0	0.0	0.0	0.0	0.0	-0.041	
5.0	0.0	0.0	0.0	0.0	-0.018	
6.0	0.0	0.0	0.0	0.0	0.0	
7.0	0.0	0.0	0.0	0.0	0.015	
8.0	0.0	0.0	0.0	0.0	0.023	
9.0	0.0	0.0	0.0	0.0	0.023	
10.0	0.0	0.0	0.0	0.0	0.018	
11.0	0.0	0.0	0.0	0.0	0.006	
12.0	0.0	0.0	0.0	0.0	-0.009	
13.0	0.0	0.0	0.0	0.0	-0.029	
14.0	0.0	0.0	0.0	0.0	-0.05	
15.0	0.0	0.0	0.0	0.0	-0.07	
0.0	0.0	0.0	0.0	0.0	-0.085	
1.0	0.0	0.0	0.0	0.0	-0.094	
2.0	0.0	0.0	0.0	0.0	-0.1	
3.0	0.0	0.0	0.0	0.0	-0.1	
4.0	0.0	0.0	0.0	0.0	-0.094	
5.0	0.0	0.0	0.0	0.0	-0.076	
6.0	0.0	0.0	0.0	0.0	-0.059	
7.0	0.0	0.0	0.0	0.0	-0.038	
8.0	0.0	0.0	0.0	0.0	-0.015	
9.0	0.0	0.0	0.0	0.0	0.006	
10.0	0.0	0.0	0.0	0.0	0.026	
11.0	0.0	0.0	0.0	0.0	0.035	
12.0	0.0	0.0	0.0	0.0	0.047	
13.0	0.0	0.0	0.0	0.0	0.047	
14.0	0.0	0.0	0.0	0.0	0.041	
15.0	0.0	0.0	0.0	0.0	0.026	
0.0	0.0	0.0	0.0	0.0	0.009	
1.0	0.0	0.0	0.0	0.0	-0.012	
2.0	0.0	0.0	0.0	0.0	-0.029	
3.0	0.0	0.0	0.0	0.0	-0.05	
4.0	0.0	0.0	0.0	0.0	-0.07	
5.0	0.0	0.0	0.0	0.0	-0.082	
6.0	0.0	0.0	0.0	0.0	-0.091	
7.0	0.0	0.0	0.0	0.0	-0.091	
8.0	0.0	0.0	0.0	0.0	-0.085	
9.0	0.0	0.0	0.0	0.0	-0.07	
10.0	0.0	0.0	0.0	0.0	-0.053	
11.0	0.0	0.0	0.0	0.0	-0.029	
12.0	0.0	0.0	0.0	0.0	-0.009	
13.0	0.0	0.0	0.0	0.0	0.012	
14.0	0.0	0.0	0.0	0.0	0.026	
15.0	0.0	0.0	0.0	0.0	0.041	
0.0	0.0	0.0	0.0	0.0	0.053	
1.0	0.0	0.0	0.0	0.0	0.05	
2.0	0.0	0.0	0.0	0.0	0.041	
3.0	0.0	0.0	0.0	0.0	0.029	
4.0	0.0	0.0	0.0	0.0	0.012	
5.0	0.0	0.0	0.0	0.0	-0.006	
6.0	0.0	0.0	0.0	0.0	-0.026	
7.0	0.0	0.0	0.0	0.0	-0.047	
8.0	0.0	0.0	0.0	0.0	-0.062	
9.0	0.0	0.0	0.0	0.0	-0.073	
10.0	0.0	0.0	0.0	0.0	-0.097	
11.0	0.0	0.0	0.0	0.0	-0.094	
12.0	0.0	0.0	0.0	0.0	-0.085	
13.0	0.0	0.0	0.0	0.0	-0.073	
14.0	0.0	0.0	0.0	0.0	-0.059	
15.0	0.0	0.0	0.0	0.0	-0.038	
0.0	0.0	0.0	0.0	0.0	-0.015	
1.0	0.0	0.0	0.0	0.0	0.009	
2.0	0.0	0.0	0.0	0.0	0.023	
3.0	0.0	0.0	0.0	0.0	0.035	
4.0	0.0	0.0	0.0	0.0	0.041	
5.0	0.0	0.0	0.0	0.0	0.041	
6.0	0.0	0.0	0.0	0.0	0.035	
7.0	0.0	0.0	0.0	0.0	0.023	
8.0	0.0	0.0	0.0	0.0	0.006	
9.0	0.0	0.0	0.0	0.0	-0.012	
10.0	0.0	0.0	0.0	0.0	-0.035	
11.0	0.0	0.0	0.0	0.0	-0.05	
12.0	0.0	0.0	0.0	0.0	-0.067	
13.0	0.0	0.0	0.0	0.0	-0.073	
14.0	0.0	0.0	0.0	0.0	-0.097	
15.0	0.0	0.0	0.0	0.0	-0.091	
0.0	0.0	0.0	0.0	0.0	-0.079	
1.0	0.0	0.0	0.0	0.0	-0.062	
2.0	0.0	0.0	0.0	0.0	-0.044	
3.0	0.0	0.0	0.0	0.0	-0.021	
4.0	0.0	0.0	0.0	0.0	0.003	
5.0	0.0	0.0	0.0	0.0	0.026	
6.0	0.0	0.0	0.0	0.0	0.047	
7.0	0.0	0.0	0.0	0.0	0.059	
8.0	0.0	0.0	0.0	0.0	0.067	
9.0	0.0	0.0	0.0	0.0	0.07	
10.0	0.0	0.0	0.0	0.0	0.064	
11.0	0.0	0.0	0.0	0.0	0.053	
12.0	0.0	0.0	0.0	0.0	0.038	
13.0	0.0	0.0	0.0	0.0	0.018	
14.0	0.0	0.0	0.0	0.0	0.0	
15.0	0.0	0.0	0.0	0.0	-0.018	
0.0	0.0	0.0	0.0	0.0	-0.035	
1.0	0.0	0.0	0.0	0.0	-0.047	
2.0	0.0	0.0	0.0	0.0	-0.059	
3.0	0.0	0.0	0.0	0.0	-0.056	
4.0	0.0	0.0	0.0	0.0	-0.047	
5.0	0.0	0.0	0.0	0.0	-0.029	
6.0	0.0	0.0	0.0	0.0	-0.009	
7.0	0.0	0.0	0.0	0.0	0.012	
8.0	0.0	0.0	0.0	0.0	0.035	
9.0	0.0	0.0	0.0	0.0	0.056	
10.0	0.0	0.0	0.0	0.0	0.073	
11.0	0.0	0.0	0.0	0.0	0.091	
12.0	0.0	0.0	0.0	0.0	0.1	
13.0	0.0	0.0	0.0	0.0	0.103	
14.0	0.0	0.0	0.0	0.0	0.097	
15.0	0.0	0.0	0.0	0.0	0.088	
0.0	0.0	0.0	0.0	0.0	0.073	
1.0	0.0	0.0	0.0	0.0	0.056	
2.0	0.0	0.0	0.0	0.0	0.032	
3.0	0.0	0.0	0.0	0.0	0.009	
4.0	0.0	0.0	0.0	0.0	-0.009	
5.0	0.0	0.0	0.0	0.0	-0.023	
6.0	0.0	0.0	0.0	0.0	-0.056	
7.0	0.0	0.0	0.0	0.0	-0.056	
8.0	0.0	0.0	0.0	0.0	-0.047	
9.0	0.0	0.0	0.0	0.0	-0.038	
10.0	0.0	0.0	0.0	0.0	-0.018	
11.0	0.0	0.0	0.0	0.0	0.0	
12.0	0.0	0.0	0.0	0.0	0.023	
13.0	0.0	0.0	0.0	0.0	0.047	
14.0	0.0	0.0	0.0	0.0	0.064	
15.0	0.0	0.0	0.0	0.0	0.076	
0.0	0.0	0.0	0.0	0.0	0.085	
1.0	0.0	0.0	0.0	0.0	0.088	
2.0	0.0	0.0	0.0	0.0	0.082	
3.0	0.0	0.0	0.0	0.0	0.07	
4.0	0.0	0.0	0.0	0.0	0.053	
5.0	0.0	0.0	0.0	0.0	0.032	
6.0	0.0	0.0	0.0	0.0	0.009	
7.0	0.0	0.0	0.0	0.0	-0.012	
8.0	0.0	0.0	0.0	0.0	-0.029	
9.0	0.0	0.0	0.0	0.0	-0.047	
10.0	0.0	0.0	0.0	0.0	-0.073	
11.0	0.0	0.0	0.0	0.0	-0.07	
12.0	0.0	0.0	0.0	0.0	-0.059	
13.0	0.0	0.0	0.0	0.0	-0.05	
14.0	0.0	0.0	0.0	0.0	-0.035	
15.0	0.0	0.0	0.0	0.0	-0.015	
0.0	0.0	0.0	0.0	0.0	0.0	
1.0	0.0	0.0	0.0	0.0	0.018	
2.0	0.0	0.0	0.0	0.0	0.032	
3.0	0.0	0.0	0.0	0.0	0.044	
4.0	0.0	0.0	0.0	0.0	0.05	
5.0	0.0	0.0	0.0	0.0	0.044	
6.0	0.0	0.0	0.0	0.0	0.035	
7.0	0.0	0.0	0.0	0.0	0.021	
8.0	0.0	0.0	0.0	0.0	0.0	
9.0	0.0	0.0	0.0	0.0	-0.021	
10.0	0.0	0.0	0.0	0.0	-0.041	
11.0	0.0	0.0	0.0	0.0	-0.062	
12.0	0.0	0.0	0.0	0.0	-0.082	
13.0	0.0	0.0	0.0	0.0	-0.094	
14.0	0.0	0.0	0.0	0.0	-0.123	
15.0	0.0	0.0	0.0	0.0	-0.123	
0.0	0.0	0.0	0.0	0.0	-0.114	
1.0	0.0	0.0	0.0	0.0	-0.105	
2.0	0.0	0.0	0.0	0.0	-0.091	
3.0	0.0	0.0	0.0	0.0	-0.07	
4.0	0.0	0.0	0.0	0.0	-0.047	
5.0	0.0	0.0	0.0	0.0	-0.026	
6.0	0.0	0.0	0.0	0.0	-0.009	
7.0	0.0	0.0	0.0	0.0	0.003	
8.0	0.0	0.0	0.0	0.0	0.012	
9.0	0.0	0.0	0.0	0.0	0.012	
10.0	0.0	0.0	0.0	0.0	0.003	
11.0	0.0	0.0	0.0	0.0	-0.009	
12.0	0.0	0.0	0.0	0.0	-0.026	
13.0	0.0	0.0	0.0	0.0	-0.044	
14.0	0.0	0.0	0.0	0.0	-0.062	
15.0	0.0	0.0	0.0	0.0	-0.079	
0.0	0.0	0.0	0.0	0.0	-0.094	
1.0	0.0	0.0	0.0	0.0	-0.108	
2.0	0.0	0.0	0.0	0.0	-0.132	
3.0	0.0	0.0	0.0	0.0	-0.129	
4.0	0.0	0.0	0.0	0.0	-0.117	
5.0	0.0	0.0	0.0	0.0	-0.105	
6.0	0.0	0.0	0.0	0.0	-0.088	
7.0	0.0	0.0	0.0	0.0	-0.067	
8.0	0.0	0.0	0.0	0.0	-0.047	
9.0	0.0	0.0	0.0	0.0	-0.023	
10.0	0.0	0.0	0.0	0.0	-0.003	
11.0	0.0	0.0	0.0	0.0	0.009	
12.0	0.0	0.0	0.0	0.0	0.018	
13.0	0.0	0.0	0.0	0.0	0.015	
14.0	0.0	0.0	0.0	0.0	0.009	
15.0	0.0	0.0	0.0	0.0	-0.003	
0.0	0.0	0.0	0.0	0.0	-0.021	
1.0	0.0	0.0	0.0	0.0	-0.038	
2.0	0.0	0.0	0.0	0.0	-0.059	
3.0	0.0	0.0	0.0	0.0	-0.073	
4.0	0.0	0.0	0.0	0.0	-0.091	
5.0	0.0	0.0	0.0	0.0	-0.103	
6.0	0.0	0.0	0.0	0.0	-0.123	
7.0	0.0	0.0	0.0	0.0	-0.12	
8.0	0.0	0.0	0.0	0.0	-0.108	
9.0	0.0	0.0	0.0	0.0	-0.094	
10.0	0.0	0.0	0.0	0.0	-0.073	
11.0	0.0	0.0	0.0	0.0	-0.05	
12.0	0.0	0.0	0.0	0.0	-0.026	
13.0	0.0	0.0	0.0	0.0	-0.003	
14.0	0.0	0.0	0.0	0.0	0.018	
15.0	0.0	0.0	0.0	0.0	0.029	
0.0	0.0	0.0	0.0	0.0	0.035	
1.0	0.0	0.0	0.0	0.0	0.035	
2.0	0.0	0.0	0.0	0.0	0.026	
3.0	0.0	0.0	0.0	0.0	0.015	
4.0	0.0	0.0	0.0	0.0	-0.003	
5.0	0.0	0.0	0.0	0.0	-0.021	
6.0	0.0	0.0	0.0	0.0	-0.038	
7.0	0.0	0.0	0.0	0.0	-0.059	
8.0	0.0	0.0	0.0	0.0	-0.076	
9.0	0.0	0.0	0.0	0.0	-0.091	
10.0	0.0	0.0	0.0	0.0	-0.114	
11.0	0.0	0.0	0.0	0.0	-0.108	
12.0	0.0	0.0	0.0	0.0	-0.1	
13.0	0.0	0.0	0.0	0.0	-0.088	
14.0	0.0	0.0	0.0	0.0	-0.067	
15.0	0.0	0.0	0.0	0.0	-0.044	
0.0	0.0	0.0	0.0	0.0	-0.021	
1.0	0.0	0.0	0.0	0.0	0.0	
2.0	0.0	0.0	0.0	0.0	0.018	
3.0	0.0	0.0	0.0	0.0	0.032	
4.0	0.0	0.0	0.0	0.0	0.038	
5.0	0.0	0.0	0.0	0.0	0.032	
6.0	0.0	0.0	0.0	0.0	0.023	
7.0	0.0	0.0	0.0	0.0	0.009	
8.0	0.0	0.0	0.0	0.0	-0.012	
9.0	0.0	0.0	0.0	0.0	-0.035	
10.0	0.0	0.0	0.0	0.0	-0.056	
11.0	0.0	0.0	0.0	0.0	-0.076	
12.0	0.0	0.0	0.0	0.0	-0.094	
13.0	0.0	0.0	0.0	0.0	-0.1	
14.0	0.0	0.0	0.0	0.0	-0.111	
15.0	0.0	0.0	0.0	0.0	-0.111	
0.0	0.0	0.0	0.0	0.0	-0.1	
1.0	0.0	0.0	0.0	0.0	-0.085	
2.0	0.0	0.0	0.0	0.0	-0.064	
3.0	0.0	0.0	0.0	0.0	-0.035	
4.0	0.0	0.0	0.0	0.0	-0.003	
5.0	0.0	0.0	0.0	0.0	0.029	
6.0	0.0	0.0	0.0	0.0	0.059	
7.0	0.0	0.0	0.0	0.0	0.088	
8.0	0.0	0.0	0.0	0.0	0.111	
9.0	0.0	0.0	0.0	0.0	0.129	
10.0	0.0	0.0	0.0	0.0	0.149	
11.0	0.0	0.0	0.0	0.0	0.173	
12.0	0.0	0.0	0.0	0.0	0.19	
13.0	0.0	0.0	0.0	0.0	0.205	
14.0	0.0	0.0	0.0	0.0	0.223	
15.0	0.0	0.0	0.0	0.0	0.24	
0.0	0.0	0.0	0.0	0.0	0.249	
1.0	0.0	0.0	0.0	0.0	0.255	
2.0	0.0	0.0	0.0	0.0	0.249	
3.0	0.0	0.0	0.0	0.0	0.27	
4.0	0.0	0.0	0.0	0.0	0.293	
5.0	0.0	0.0	0.0	0.0	0.325	
6.0	0.0	0.0	0.0	0.0	0.354	
7.0	0.0	0.0	0.0	0.0	0.381	
8.0	0.0	0.0	0.0	0.0	0.401	
9.0	0.0	0.0	0.0	0.0	0.407	
10.0	0.0	0.0	0.0	0.0	0.396	
11.0	0.0	0.0	0.0	0.0	0.375	
12.0	0.0	0.0	0.0	0.0	0.346	
13.0	0.0	0.0	0.0	0.0	0.311	
14.0	0.0	0.0	0.0	0.0	0.272	
15.0	0.0	0.0	0.0	0.0	0.226	
0.0	0.0	0.0	0.0	0.0	0.173	
1.0	0.0	0.0	0.0	0.0	0.114	
2.0	0.0	0.0	0.0	0.0	0.05	
3.0	0.0	0.0	0.0	0.0	-0.009	
4.0	0.0	0.0	0.0	0.0	-0.076	
5.0	0.0	0.0	0.0	0.0	-0.138	
6.0	0.0	0.0	0.0	0.0	-0.214	
7.0	0.0	0.0	0.0	0.0	-0.252	
8.0	0.0	0.0	0.0	0.0	-0.275	
9.0	0.0	0.0	0.0	0.0	-0.287	
10.0	0.0	0.0	0.0	0.0	-0.284	
11.0	0.0	0.0	0.0	0.0	-0.272	
12.0	0.0	0.0	0.0	0.0	-0.261	
13.0	0.0	0.0	0.0	0.0	-0.24	
14.0	0.0	0.0	0.0	0.0	-0.22	
15.0	0.0	0.0	0.0	0.0	-0.199	
0.0	0.0	0.0	0.0	0.0	-0.179	
1.0	0.0	0.0	0.0	0.0	-0.164	
2.0	0.0	0.0	0.0	0.0	-0.152	
3.0	0.0	0.0	0.0	0.0	-0.146	
4.0	0.0	0.0	0.0	0.0	-0.144	
5.0	0.0	0.0	0.0	0.0	-0.146	
6.0	0.0	0.0	0.0	0.0	-0.152	
7.0	0.0	0.0	0.0	0.0	-0.158	
8.0	0.0	0.0	0.0	0.0	-0.161	
9.0	0.0	0.0	0.0	0.0	-0.161	
10.0	0.0	0.0	0.0	0.0	-0.167	
11.0	0.0	0.0	0.0	0.0	-0.155	
12.0	0.0	0.0	0.0	0.0	-0.141	
13.0	0.0	0.0	0.0	0.0	-0.123	
14.0	0.0	0.0	0.0	0.0	-0.1	
15.0	0.0	0.0	0.0	0.0	-0.073	
0.0	0.0	0.0	0.0	0.0	-0.05	
1.0	0.0	0.0	0.0	0.0	-0.026	
2.0	0.0	0.0	0.0	0.0	-0.003	
3.0	0.0	0.0	0.0	0.0	0.009	
4.0	0.0	0.0	0.0	0.0	0.018	
5.0	0.0	0.0	0.0	0.0	0.023	
6.0	0.0	0.0	0.0	0.0	0.021	
7.0	0.0	0.0	0.0	0.0	0.006	
8.0	0.0	0.0	0.0	0.0	-0.009	
9.0	0.0	0.0	0.0	0.0	-0.026	
10.0	0.0	0.0	0.0	0.0	-0.047	
11.0	0.0	0.0	0.0	0.0	-0.062	
12.0	0.0	0.0	0.0	0.0	-0.076	
13.0	0.0	0.0	0.0	0.0	-0.088	
14.0	0.0	0.0	0.0	0.0	-0.117	
15.0	0.0	0.0	0.0	0.0	-0.114	
0.0	0.0	0.0	0.0	0.0	-0.1	
1.0	0.0	0.0	0.0	0.0	-0.085	
2.0	0.0	0.0	0.0	0.0	-0.067	
3.0	0.0	0.0	0.0	0.0	-0.044	
4.0	0.0	0.0	0.0	0.0	-0.023	
5.0	0.0	0.0	0.0	0.0	0.0	
6.0	0.0	0.0	0.0	0.0	0.018	
7.0	0.0	0.0	0.0	0.0	0.032	
8.0	0.0	0.0	0.0	0.0	0.041	
9.0	0.0	0.0	0.0	0.0	0.041	
10.0	0.0	0.0	0.0	0.0	0.035	
11.0	0.0	0.0	0.0	0.0	0.023	
12.0	0.0	0.0	0.0	0.0	0.009	
13.0	0.0	0.0	0.0	0.0	-0.006	
14.0	0.0	0.0	0.0	0.0	-0.026	
15.0	0.0	0.0	0.0	0.0	-0.047	
0.0	0.0	0.0	0.0	0.0	-0.062	
1.0	0.0	0.0	0.0	0.0	-0.073	
2.0	0.0	0.0	0.0	0.0	-0.105	
3.0	0.0	0.0	0.0	0.0	-0.1	
4.0	0.0	0.0	0.0	0.0	-0.088	
5.0	0.0	0.0	0.0	0.0	-0.076	
6.0	0.0	0.0	0.0	0.0	-0.056	
7.0	0.0	0.0	0.0	0.0	-0.035	
8.0	0.0	0.0	0.0	0.0	-0.012	
9.0	0.0	0.0	0.0	0.0	0.009	
10.0	0.0	0.0	0.0	0.0	0.032	
11.0	0.0	0.0	0.0	0.0	0.047	
12.0	0.0	0.0	0.0	0.0	0.056	
13.0	0.0	0.0	0.0	0.0	0.059	
14.0	0.0	0.0	0.0	0.0	0.056	
15.0	0.0	0.0	0.0	0.0	0.044	
0.0	0.0	0.0	0.0	0.0	0.026	
1.0	0.0	0.0	0.0	0.0	0.009	
2.0	0.0	0.0	0.0	0.0	-0.012	
3.0	0.0	0.0	0.0	0.0	-0.026	
4.0	0.0	0.0	0.0	0.0	-0.041	
5.0	0.0	0.0	0.0	0.0	-0.053	
6.0	0.0	0.0	0.0	0.0	-0.067	
7.0	0.0	0.0	0.0	0.0	-0.067	
8.0	0.0	0.0	0.0	0.0	-0.059	
9.0	0.0	0.0	0.0	0.0	-0.047	
10.0	0.0	0.0	0.0	0.0	-0.029	
11.0	0.0	0.0	0.0	0.0	-0.009	
12.0	0.0	0.0	0.0	0.0	0.012	
13.0	0.0	0.0	0.0	0.0	0.035	
14.0	0.0	0.0	0.0	0.0	0.056	
15.0	0.0	0.0	0.0	0.0	0.067	
0.0	0.0	0.0	0.0	0.0	0.073	
1.0	0.0	0.0	0.0	0.0	0.073	
2.0	0.0	0.0	0.0	0.0	0.067	
3.0	0.0	0.0	0.0	0.0	0.059	
4.0	0.0	0.0	0.0	0.0	0.044	
5.0	0.0	0.0	0.0	0.0	0.026	
6.0	0.0	0.0	0.0	0.0	0.009	
7.0	0.0	0.0	0.0	0.0	-0.009	
8.0	0.0	0.0	0.0	0.0	-0.029	
9.0	0.0	0.0	0.0	0.0	-0.044	
10.0	0.0	0.0	0.0	0.0	-0.073	
11.0	0.0	0.0	0.0	0.0	-0.067	
12.0	0.0	0.0	0.0	0.0	-0.059	
13.0	0.0	0.0	0.0	0.0	-0.044	
14.0	0.0	0.0	0.0	0.0	-0.023	
15.0	0.0	0.0	0.0	0.0	0.0	
0.0	0.0	0.0	0.0	0.0	0.018	
1.0	0.0	0.0	0.0	0.0	0.038	
2.0	0.0	0.0	0.0	0.0	0.056	
3.0	0.0	0.0	0.0	0.0	0.07	
4.0	0.0	0.0	0.0	0.0	0.079	
5.0	0.0	0.0	0.0	0.0	0.082	
6.0	0.0	0.0	0.0	0.0	0.073	
7.0	0.0	0.0	0.0	0.0	0.062	
8.0	0.0	0.0	0.0	0.0	0.044	
9.0	0.0	0.0	0.0	0.0	0.029	
10.0	0.0	0.0	0.0	0.0	0.012	
11.0	0.0	0.0	0.0	0.0	-0.006	
12.0	0.0	0.0	0.0	0.0	-0.023	
13.0	0.0	0.0	0.0	0.0	-0.032	
14.0	0.0	0.0	0.0	0.0	-0.044	
15.0	0.0	0.0	0.0	0.0	-0.041	
0.0	0.0	0.0	0.0	0.0	-0.029	
1.0	0.0	0.0	0.0	0.0	-0.015	
2.0	0.0	0.0	0.0	0.0	0.0	
3.0	0.0	0.0	0.0	0.0	0.021	
4.0	0.0	0.0	0.0	0.0	0.038	
5.0	0.0	0.0	0.0	0.0	0.059	
6.0	0.0	0.0	0.0	0.0	0.079	
7.0	0.0	0.0	0.0	0.0	0.091	
8.0	0.0	0.0	0.0	0.0	0.097	
9.0	0.0	0.0	0.0	0.0	0.1	
10.0	0.0	0.0	0.0	0.0	0.094	
11.0	0.0	0.0	0.0	0.0	0.088	
12.0	0.0	0.0	0.0	0.0	0.073	
13.0	0.0	0.0	0.0	0.0	0.056	
14.0	0.0	0.0	0.0	0.0	0.038	
15.0	0.0	0.0	0.0	0.0	0.023	
0.0	0.0	0.0	0.0	0.0	0.006	
1.0	0.0	0.0	0.0	0.0	-0.006	
2.0	0.0	0.0	0.0	0.0	-0.032	
3.0	0.0	0.0	0.0	0.0	-0.029	
4.0	0.0	0.0	0.0	0.0	-0.023	
5.0	0.0	0.0	0.0	0.0	-0.009	
6.0	0.0	0.0	0.0	0.0	0.012	
7.0	0.0	0.0	0.0	0.0	0.032	
8.0	0.0	0.0	0.0	0.0	0.053	
9.0	0.0	0.0	0.0	0.0	0.073	
10.0	0.0	0.0	0.0	0.0	0.094	
11.0	0.0	0.0	0.0	0.0	0.105	
12.0	0.0	0.0	0.0	0.0	0.114	
13.0	0.0	0.0	0.0	0.0	0.117	
14.0	0.0	0.0	0.0	0.0	0.114	
15.0	0.0	0.0	0.0	0.0	0.103	
0.0	0.0	0.0	0.0	0.0	0.088	
1.0	0.0	0.0	0.0	0.0	0.073	
2.0	0.0	0.0	0.0	0.0	0.056	
3.0	0.0	0.0	0.0	0.0	0.044	
4.0	0.0	0.0	0.0	0.0	0.032	
5.0	0.0	0.0	0.0	0.0	0.021	
6.0	0.0	0.0	0.0	0.0	0.003	
7.0	0.0	0.0	0.0	0.0	0.009	
8.0	0.0	0.0	0.0	0.0	0.018	
9.0	0.0	0.0	0.0	0.0	0.032	
10.0	0.0	0.0	0.0	0.0	0.047	
11.0	0.0	0.0	0.0	0.0	0.064	
12.0	0.0	0.0	0.0	0.0	0.085	
13.0	0.0	0.0	0.0	0.0	0.105	
14.0	0.0	0.0	0.0	0.0	0.123	
15.0	0.0	0.0	0.0	0.0	0.135	
0.0	0.0	0.0	0.0	0.0	0.144	
1.0	0.0	0.0	0.0	0.0	0.149	
2.0	0.0	0.0	0.0	0.0	0.146	
3.0	0.0	0.0	0.0	0.0	0.138	
4.0	0.0	0.0	0.0	0.0	0.129	
5.0	0.0	0.0	0.0	0.0	0.111	
6.0	0.0	0.0	0.0	0.0	0.091	
7.0	0.0	0.0	0.0	0.0	0.073	
8.0	0.0	0.0	0.0	0.0	0.059	
9.0	0.0	0.0	0.0	0.0	0.05	
10.0	0.0	0.0	0.0	0.0	0.041	
11.0	0.0	0.0	0.0	0.0	0.044	
12.0	0.0	0.0	0.0	0.0	0.05	
13.0	0.0	0.0	0.0	0.0	0.062	
14.0	0.0	0.0	0.0	0.0	0.079	
15.0	0.0	0.0	0.0	0.0	0.1	
0.0	0.0	0.0	0.0	0.0	0.117	
1.0	0.0	0.0	0.0	0.0	0.135	
2.0	0.0	0.0	0.0	0.0	0.152	
3.0	0.0	0.0	0.0	0.0	0.164	
4.0	0.0	0.0	0.0	0.0	0.173	
5.0	0.0	0.0	0.0	0.0	0.173	
6.0	0.0	0.0	0.0	0.0	0.164	
7.0	0.0	0.0	0.0	0.0	0.152	
8.0	0.0	0.0	0.0	0.0	0.138	
9.0	0.0	0.0	0.0	0.0	0.117	
10.0	0.0	0.0	0.0	0.0	0.1	
11.0	0.0	0.0	0.0	0.0	0.082	
12.0	0.0	0.0	0.0	0.0	0.067	
13.0	0.0	0.0	0.0	0.0	0.053	
14.0	0.0	0.0	0.0	0.0	0.041	
15.0	0.0	0.0	0.0	0.0	0.044	
0.0	0.0	0.0	0.0	0.0	0.047	
1.0	0.0	0.0	0.0	0.0	0.056	
2.0	0.0	0.0	0.0	0.0	0.07	
3.0	0.0	0.0	0.0	0.0	0.088	
4.0	0.0	0.0	0.0	0.0	0.103	
5.0	0.0	0.0	0.0	0.0	0.12	
6.0	0.0	0.0	0.0	0.0	0.135	
7.0	0.0	0.0	0.0	0.0	0.144	
8.0	0.0	0.0	0.0	0.0	0.149	
9.0	0.0	0.0	0.0	0.0	0.149	
10.0	0.0	0.0	0.0	0.0	0.144	
11.0	0.0	0.0	0.0	0.0	0.132	
12.0	0.0	0.0	0.0	0.0	0.117	
13.0	0.0	0.0	0.0	0.0	0.1	
14.0	0.0	0.0	0.0	0.0	0.082	
15.0	0.0	0.0	0.0	0.0	0.067	
0.0	0.0	0.0	0.0	0.0	0.05	
1.0	0.0	0.0	0.0	0.0	0.035	
2.0	0.0	0.0	0.0	0.0	0.012	
3.0	0.0	0.0	0.0	0.0	0.012	
4.0	0.0	0.0	0.0	0.0	0.018	
5.0	0.0	0.0	0.0	0.0	0.026	
6.0	0.0	0.0	0.0	0.0	0.041	
7.0	0.0	0.0	0.0	0.0	0.053	
8.0	0.0	0.0	0.0	0.0	0.07	
9.0	0.0	0.0	0.0	0.0	0.085	
10.0	0.0	0.0	0.0	0.0	0.1	
11.0	0.0	0.0	0.0	0.0	0.108	
12.0	0.0	0.0	0.0	0.0	0.111	
13.0	0.0	0.0	0.0	0.0	0.111	
14.0	0.0	0.0	0.0	0.0	0.105	
15.0	0.0	0.0	0.0	0.0	0.094	
0.0	0.0	0.0	0.0	0.0	0.076	
1.0	0.0	0.0	0.0	0.0	0.056	
2.0	0.0	0.0	0.0	0.0	0.035	
3.0	0.0	0.0	0.0	0.0	0.015	
4.0	0.0	0.0	0.0	0.0	-0.003	
5.0	0.0	0.0	0.0	0.0	-0.021	
6.0	0.0	0.0	0.0	0.0	-0.041	
7.0	0.0	0.0	0.0	0.0	-0.044	
8.0	0.0	0.0	0.0	0.0	-0.041	
9.0	0.0	0.0	0.0	0.0	-0.035	
10.0	0.0	0.0	0.0	0.0	-0.026	
11.0	0.0	0.0	0.0	0.0	-0.015	
12.0	0.0	0.0	0.0	0.0	-0.003	
13.0	0.0	0.0	0.0	0.0	0.009	
14.0	0.0	0.0	0.0	0.0	0.021	
15.0	0.0	0.0	0.0	0.0	0.029	
0.0	0.0	0.0	0.0	0.0	0.032	
1.0	0.0	0.0	0.0	0.0	0.026	
2.0	0.0	0.0	0.0	0.0	0.018	
3.0	0.0	0.0	0.0	0.0	0.006	
4.0	0.0	0.0	0.0	0.0	-0.012	
5.0	0.0	0.0	0.0	0.0	-0.032	
6.0	0.0	0.0	0.0	0.0	-0.056	
7.0	0.0	0.0	0.0	0.0	-0.073	
8.0	0.0	0.0	0.0	0.0	-0.094	
9.0	0.0	0.0	0.0	0.0	-0.111	
10.0	0.0	0.0	0.0	0.0	-0.141	
11.0	0.0	0.0	0.0	0.0	-0.141	
12.0	0.0	0.0	0.0	0.0	-0.138	
13.0	0.0	0.0	0.0	0.0	-0.129	
14.0	0.0	0.0	0.0	0.0	-0.117	
15.0	0.0	0.0	0.0	0.0	-0.1	
0.0	0.0	0.0	0.0	0.0	-0.088	
1.0	0.0	0.0	0.0	0.0	-0.073	
2.0	0.0	0.0	0.0	0.0	-0.056	
3.0	0.0	0.0	0.0	0.0	-0.05	
4.0	0.0	0.0	0.0	0.0	-0.044	
5.0	0.0	0.0	0.0	0.0	-0.047	
6.0	0.0	0.0	0.0	0.0	-0.056	
7.0	0.0	0.0	0.0	0.0	-0.07	
8.0	0.0	0.0	0.0	0.0	-0.088	
9.0	0.0	0.0	0.0	0.0	-0.105	
10.0	0.0	0.0	0.0	0.0	-0.126	
11.0	0.0	0.0	0.0	0.0	-0.141	
12.0	0.0	0.0	0.0	0.0	-0.155	
13.0	0.0	0.0	0.0	0.0	-0.17	
14.0	0.0	0.0	0.0	0.0	-0.19	
15.0	0.0	0.0	0.0	0.0	-0.188	
0.0	0.0	0.0	0.0	0.0	-0.182	
1.0	0.0	0.0	0.0	0.0	-0.17	
2.0	0.0	0.0	0.0	0.0	-0.155	
3.0	0.0	0.0	0.0	0.0	-0.141	
4.0	0.0	0.0	0.0	0.0	-0.12	
5.0	0.0	0.0	0.0	0.0	-0.103	
6.0	0.0	0.0	0.0	0.0	-0.085	
7.0	0.0	0.0	0.0	0.0	-0.073	
8.0	0.0	0.0	0.0	0.0	-0.064	
9.0	0.0	0.0	0.0	0.0	-0.064	
10.0	0.0	0.0	0.0	0.0	-0.067	
11.0	0.0	0.0	0.0	0.0	-0.076	
12.0	0.0	0.0	0.0	0.0	-0.088	
13.0	0.0	0.0	0.0	0.0	-0.103	
14.0	0.0	0.0	0.0	0.0	-0.117	
15.0	0.0	0.0	0.0	0.0	-0.132	
0.0	0.0	0.0	0.0	0.0	-0.146	
1.0	0.0	0.0	0.0	0.0	-0.158	
2.0	0.0	0.0	0.0	0.0	-0.179	
3.0	0.0	0.0	0.0	0.0	-0.176	
4.0	0.0	0.0	0.0	0.0	-0.167	
5.0	0.0	0.0	0.0	0.0	-0.158	
6.0	0.0	0.0	0.0	0.0	-0.144	
7.0	0.0	0.0	0.0	0.0	-0.126	
8.0	0.0	0.0	0.0	0.0	-0.105	
9.0	0.0	0.0	0.0	0.0	-0.091	
10.0	0.0	0.0	0.0	0.0	-0.073	
11.0	0.0	0.0	0.0	0.0	-0.062	
12.0	0.0	0.0	0.0	0.0	-0.053	
13.0	0.0	0.0	0.0	0.0	-0.05	
14.0	0.0	0.0	0.0	0.0	-0.053	
15.0	0.0	0.0	0.0	0.0	-0.062	
0.0	0.0	0.0	0.0	0.0	-0.073	
1.0	0.0	0.0	0.0	0.0	-0.085	
2.0	0.0	0.0	0.0	0.0	-0.097	
3.0	0.0	0.0	0.0	0.0	-0.111	
4.0	0.0	0.0	0.0	0.0	-0.123	
5.0	0.0	0.0	0.0	0.0	-0.132	
6.0	0.0	0.0	0.0	0.0	-0.149	
7.0	0.0	0.0	0.0	0.0	-0.146	
8.0	0.0	0.0	0.0	0.0	-0.141	
9.0	0.0	0.0	0.0	0.0	-0.129	
10.0	0.0	0.0	0.0	0.0	-0.114	
11.0	0.0	0.0	0.0	0.0	-0.097	
12.0	0.0	0.0	0.0	0.0	-0.079	
13.0	0.0	0.0	0.0	0.0	-0.059	
14.0	0.0	0.0	0.0	0.0	-0.047	
15.0	0.0	0.0	0.0	0.0	-0.035	
0.0	0.0	0.0	0.0	0.0	-0.026	
1.0	0.0	0.0	0.0	0.0	-0.023	
2.0	0.0	0.0	0.0	0.0	-0.029	
3.0	0.0	0.0	0.0	0.0	-0.035	
4.0	0.0	0.0	0.0	0.0	-0.047	
5.0	0.0	0.0	0.0	0.0	-0.062	
6.0	0.0	0.0	0.0	0.0	-0.076	
7.0	0.0	0.0	0.0	0.0	-0.091	
8.0	0.0	0.0	0.0	0.0	-0.105	
9.0	0.0	0.0	0.0	0.0	-0.114	
10.0	0.0	0.0	0.0	0.0	-0.138	
11.0	0.0	0.0	0.0	0.0	-0.135	
12.0	0.0	0.0	0.0	0.0	-0.126	
13.0	0.0	0.0	0.0	0.0	-0.117	
14.0	0.0	0.0	0.0	0.0	-0.1	
15.0	0.0	0.0	0.0	0.0	-0.085	
0.0	0.0	0.0	0.0	0.0	-0.064	
1.0	0.0	0.0	0.0	0.0	-0.047	
2.0	0.0	0.0	0.0	0.0	-0.032	
3.0	0.0	0.0	0.0	0.0	-0.021	
4.0	0.0	0.0	0.0	0.0	-0.009	
5.0	0.0	0.0	0.0	0.0	-0.006	
6.0	0.0	0.0	0.0	0.0	-0.009	
7.0	0.0	0.0	0.0	0.0	-0.018	
8.0	0.0	0.0	0.0	0.0	-0.026	
9.0	0.0	0.0	0.0	0.0	-0.041	
10.0	0.0	0.0	0.0	0.0	-0.056	
11.0	0.0	0.0	0.0	0.0	-0.07	
12.0	0.0	0.0	0.0	0.0	-0.085	
13.0	0.0	0.0	0.0	0.0	-0.097	
14.0	0.0	0.0	0.0	0.0	-0.12	
15.0	0.0	0.0	0.0	0.0	-0.117	
0.0	0.0	0.0	0.0	0.0	-0.108	
1.0	0.0	0.0	0.0	0.0	-0.097	
2.0	0.0	0.0	0.0	0.0	-0.082	
3.0	0.0	0.0	0.0	0.0	-0.064	
4.0	0.0	0.0	0.0	0.0	-0.047	
5.0	0.0	0.0	0.0	0.0	-0.026	
6.0	0.0	0.0	0.0	0.0	-0.012	
7.0	0.0	0.0	0.0	0.0	0.0	
8.0	0.0	0.0	0.0	0.0	0.006	
9.0	0.0	0.0	0.0	0.0	0.009	
10.0	0.0	0.0	0.0	0.0	0.009	
11.0	0.0	0.0	0.0	0.0	0.0	
12.0	0.0	0.0	0.0	0.0	-0.012	
13.0	0.0	0.0	0.0	0.0	-0.023	
14.0	0.0	0.0	0.0	0.0	-0.041	
15.0	0.0	0.0	0.0	0.0	-0.053	
0.0	0.0	0.0	0.0	0.0	-0.07	
1.0	0.0	0.0	0.0	0.0	-0.082	
2.0	0.0	0.0	0.0	0.0	-0.105	
3.0	0.0	0.0	0.0	0.0	-0.105	
4.0	0.0	0.0	0.0	0.0	-0.097	
5.0	0.0	0.0	0.0	0.0	-0.085	
6.0	0.0	0.0	0.0	0.0	-0.07	
7.0	0.0	0.0	0.0	0.0	-0.05	
8.0	0.0	0.0	0.0	0.0	-0.035	
9.0	0.0	0.0	0.0	0.0	-0.015	
10.0	0.0	0.0	0.0	0.0	0.0	
11.0	0.0	0.0	0.0	0.0	0.009	
12.0	0.0	0.0	0.0	0.0	0.018	
13.0	0.0	0.0	0.0	0.0	0.021	
14.0	0.0	0.0	0.0	0.0	0.018	
15.0	0.0	0.0	0.0	0.0	0.009	
0.0	0.0	0.0	0.0	0.0	0.0	
1.0	0.0	0.0	0.0	0.0	-0.018	
2.0	0.0	0.0	0.0	0.0	-0.032	
3.0	0.0	0.0	0.0	0.0	-0.05	
4.0	0.0	0.0	0.0	0.0	-0.064	
5.0	0.0	0.0	0.0	0.0	-0.073	
6.0	0.0	0.0	0.0	0.0	-0.082	
7.0	0.0	0.0	0.0	0.0	-0.079	
8.0	0.0	0.0	0.0	0.0	-0.073	
9.0	0.0	0.0	0.0	0.0	-0.067	
10.0	0.0	0.0	0.0	0.0	-0.053	
11.0	0.0	0.0	0.0	0.0	-0.038	
12.0	0.0	0.0	0.0	0.0	-0.021	
13.0	0.0	0.0	0.0	0.0	-0.003	
14.0	0.0	0.0	0.0	0.0	0.012	
15.0	0.0	0.0	0.0	0.0	0.023	
0.0	0.0	0.0	0.0	0.0	0.029	
1.0	0.0	0.0	0.0	0.0	0.032	
2.0	0.0	0.0	0.0	0.0	0.026	
3.0	0.0	0.0	0.0	0.0	0.021	
4.0	0.0	0.0	0.0	0.0	0.009	
5.0	0.0	0.0	0.0	0.0	-0.006	
6.0	0.0	0.0	0.0	0.0	-0.021	
7.0	0.0	0.0	0.0	0.0	-0.032	
8.0	0.0	0.0	0.0	0.0	-0.044	
9.0	0.0	0.0	0.0	0.0	-0.053	
10.0	0.0	0.0	0.0	0.0	-0.059	
11.0	0.0	0.0	0.0	0.0	-0.059	
12.0	0.0	0.0	0.0	0.0	-0.053	
13.0	0.0	0.0	0.0	0.0	-0.041	
14.0	0.0	0.0	0.0	0.0	-0.029	
15.0	0.0	0.0	0.0	0.0	-0.012	
0.0	0.0	0.0	0.0	0.0	0.006	
1.0	0.0	0.0	0.0	0.0	0.021	
2.0	0.0	0.0	0.0	0.0	0.038	
3.0	0.0	0.0	0.0	0.0	0.05	
4.0	0.0	0.0	0.0	0.0	0.059	
5.0	0.0	0.0	0.0	0.0	0.062	
6.0	0.0	0.0	0.0	0.0	0.059	
7.0	0.0	0.0	0.0	0.0	0.05	
8.0	0.0	0.0	0.0	0.0	0.038	
9.0	0.0	0.0	0.0	0.0	0.023	
10.0	0.0	0.0	0.0	0.0	0.012	
11.0	0.0	0.0	0.0	0.0	0.0	
12.0	0.0	0.0	0.0	0.0	-0.012	
13.0	0.0	0.0	0.0	0.0	-0.021	
14.0	0.0	0.0	0.0	0.0	-0.044	
15.0	0.0	0.0	0.0	0.0	-0.041	
0.0	0.0	0.0	0.0	0.0	-0.032	
1.0	0.0	0.0	0.0	0.0	-0.021	
2.0	0.0	0.0	0.0	0.0	-0.003	
3.0	0.0	0.0	0.0	0.0	0.018	
4.0	0.0	0.0	0.0	0.0	0.035	
5.0	0.0	0.0	0.0	0.0	0.053	
6.0	0.0	0.0	0.0	0.0	0.07	
7.0	0.0	0.0	0.0	0.0	0.082	
8.0	0.0	0.0	0.0	0.0	0.094	
9.0	0.0	0.0	0.0	0.0	0.1	
10.0	0.0	0.0	0.0	0.0	0.097	
11.0	0.0	0.0	0.0	0.0	0.091	
12.0	0.0	0.0	0.0	0.0	0.082	
13.0	0.0	0.0	0.0	0.0	0.064	
14.0	0.0	0.0	0.0	0.0	0.047	
15.0	0.0	0.0	0.0	0.0	0.029	
0.0	0.0	0.0	0.0	0.0	0.012	
1.0	0.0	0.0	0.0	0.0	0.0	
2.0	0.0	0.0	0.0	0.0	-0.026	
3.0	0.0	0.0	0.0	0.0	-0.023	
4.0	0.0	0.0	0.0	0.0	-0.021	
5.0	0.0	0.0	0.0	0.0	-0.015	
6.0	0.0	0.0	0.0	0.0	-0.003	
7.0	0.0	0.0	0.0	0.0	0.009	
8.0	0.0	0.0	0.0	0.0	0.026	
9.0	0.0	0.0	0.0	0.0	0.044	
10.0	0.0	0.0	0.0	0.0	0.062	
11.0	0.0	0.0	0.0	0.0	0.073	
12.0	0.0	0.0	0.0	0.0	0.085	
13.0	0.0	0.0	0.0	0.0	0.088	
14.0	0.0	0.0	0.0	0.0	0.085	
15.0	0.0	0.0	0.0	0.0	0.079	
0.0	0.0	0.0	0.0	0.0	0.07	
1.0	0.0	0.0	0.0	0.0	0.053	
2.0	0.0	0.0	0.0	0.0	0.035	
3.0	0.0	0.0	0.0	0.0	0.021	
4.0	0.0	0.0	0.0	0.0	0.003	
5.0	0.0	0.0	0.0	0.0	-0.006	
6.0	0.0	0.0	0.0	0.0	-0.029	
7.0	0.0	0.0	0.0	0.0	-0.032	
8.0	0.0	0.0	0.0	0.0	-0.029	
9.0	0.0	0.0	0.0	0.0	-0.023	
10.0	0.0	0.0	0.0	0.0	-0.012	
11.0	0.0	0.0	0.0	0.0	0.0	
12.0	0.0	0.0	0.0	0.0	0.009	
13.0	0.0	0.0	0.0	0.0	0.023	
14.0	0.0	0.0	0.0	0.0	0.035	
15.0	0.0	0.0	0.0	0.0	0.041	
0.0	0.0	0.0	0.0	0.0	0.047	
1.0	0.0	0.0	0.0	0.0	0.044	
2.0	0.0	0.0	0.0	0.0	0.038	
3.0	0.0	0.0	0.0	0.0	0.026	
4.0	0.0	0.0	0.0	0.0	0.009	
5.0	0.0	0.0	0.0	0.0	-0.006	
6.0	0.0	0.0	0.0	0.0	-0.023	
7.0	0.0	0.0	0.0	0.0	-0.041	
8.0	0.0	0.0	0.0	0.0	-0.059	
9.0	0.0	0.0	0.0	0.0	-0.073	
10.0	0.0	0.0	0.0	0.0	-0.097	
11.0	0.0	0.0	0.0	0.0	-0.1	
12.0	0.0	0.0	0.0	0.0	-0.094	
13.0	0.0	0.0	0.0	0.0	-0.085	
14.0	0.0	0.0	0.0	0.0	-0.076	
15.0	0.0	0.0	0.0	0.0	-0.062	
0.0	0.0	0.0	0.0	0.0	-0.047	
1.0	0.0	0.0	0.0	0.0	-0.035	
2.0	0.0	0.0	0.0	0.0	-0.026	
3.0	0.0	0.0	0.0	0.0	-0.021	
4.0	0.0	0.0	0.0	0.0	-0.012	
5.0	0.0	0.0	0.0	0.0	-0.012	
6.0	0.0	0.0	0.0	0.0	-0.015	
7.0	0.0	0.0	0.0	0.0	-0.023	
8.0	0.0	0.0	0.0	0.0	-0.032	
9.0	0.0	0.0	0.0	0.0	-0.047	
10.0	0.0	0.0	0.0	0.0	-0.062	
11.0	0.0	0.0	0.0	0.0	-0.076	
12.0	0.0	0.0	0.0	0.0	-0.091	
13.0	0.0	0.0	0.0	0.0	-0.1	
14.0	0.0	0.0	0.0	0.0	-0.126	
15.0	0.0	0.0	0.0	0.0	-0.123	
0.0	0.0	0.0	0.0	0.0	-0.117	
1.0	0.0	0.0	0.0	0.0	-0.105	
2.0	0.0	0.0	0.0	0.0	-0.094	
3.0	0.0	0.0	0.0	0.0	-0.076	
4.0	0.0	0.0	0.0	0.0	-0.059	
5.0	0.0	0.0	0.0	0.0	-0.038	
6.0	0.0	0.0	0.0	0.0	-0.023	
7.0	0.0	0.0	0.0	0.0	-0.009	
8.0	0.0	0.0	0.0	0.0	0.0	
9.0	0.0	0.0	0.0	0.0	0.0	
10.0	0.0	0.0	0.0	0.0	-0.003	
11.0	0.0	0.0	0.0	0.0	-0.012	
12.0	0.0	0.0	0.0	0.0	-0.023	
13.0	0.0	0.0	0.0	0.0	-0.038	
14.0	0.0	0.0	0.0	0.0	-0.053	
15.0	0.0	0.0	0.0	0.0	-0.067	
0.0	0.0	0.0	0.0	0.0	-0.079	
1.0	0.0	0.0	0.0	0.0	-0.091	
2.0	0.0	0.0	0.0	0.0	-0.114	
3.0	0.0	0.0	0.0	0.0	-0.111	
4.0	0.0	0.0	0.0	0.0	-0.105	
5.0	0.0	0.0	0.0	0.0	-0.094	
6.0	0.0	0.0	0.0	0.0	-0.079	
7.0	0.0	0.0	0.0	0.0	-0.064	
8.0	0.0	0.0	0.0	0.0	-0.047	
9.0	0.0	0.0	0.0	0.0	-0.026	
10.0	0.0	0.0	0.0	0.0	-0.012	
11.0	0.0	0.0	0.0	0.0	0.0	
12.0	0.0	0.0	0.0	0.0	0.009	
13.0	0.0	0.0	0.0	0.0	0.012	
14.0	0.0	0.0	0.0	0.0	0.009	
15.0	0.0	0.0	0.0	0.0	0.0	
0.0	0.0	0.0	0.0	0.0	-0.012	
1.0	0.0	0.0	0.0	0.0	-0.026	
2.0	0.0	0.0	0.0	0.0	-0.038	
3.0	0.0	0.0	0.0	0.0	-0.053	
4.0	0.0	0.0	0.0	0.0	-0.067	
5.0	0.0	0.0	0.0	0.0	-0.076	
6.0	0.0	0.0	0.0	0.0	-0.1	
7.0	0.0	0.0	0.0	0.0	-0.097	
8.0	0.0	0.0	0.0	0.0	-0.091	
9.0	0.0	0.0	0.0	0.0	-0.082	
10.0	0.0	0.0	0.0	0.0	-0.07	
11.0	0.0	0.0	0.0	0.0	-0.059	
12.0	0.0	0.0	0.0	0.0	-0.041	
13.0	0.0	0.0	0.0	0.0	-0.021	
14.0	0.0	0.0	0.0	0.0	-0.006	
15.0	0.0	0.0	0.0	0.0	0.003	
0.0	0.0	0.0	0.0	0.0	0.012	
1.0	0.0	0.0	0.0	0.0	0.015	
2.0	0.0	0.0	0.0	0.0	0.012	
3.0	0.0	0.0	0.0	0.0	0.003	
4.0	0.0	0.0	0.0	0.0	-0.009	
5.0	0.0	0.0	0.0	0.0	-0.023	
6.0	0.0	0.0	0.0	0.0	-0.044	
7.0	0.0	0.0	0.0	0.0	-0.062	
8.0	0.0	0.0	0.0	0.0	-0.079	
9.0	0.0	0.0	0.0	0.0	-0.094	
10.0	0.0	0.0	0.0	0.0	-0.108	
11.0	0.0	0.0	0.0	0.0	-0.105	
12.0	0.0	0.0	0.0	0.0	-0.1	
13.0	0.0	0.0	0.0	0.0	-0.091	
14.0	0.0	0.0	0.0	0.0	-0.076	
15.0	0.0	0.0	0.0	0.0	-0.062	
0.0	0.0	0.0	0.0	0.0	-0.038	
1.0	0.0	0.0	0.0	0.0	-0.015	
2.0	0.0	0.0	0.0	0.0	0.012	
3.0	0.0	0.0	0.0	0.0	0.038	
4.0	0.0	0.0	0.0	0.0	0.059	
5.0	0.0	0.0	0.0	0.0	0.079	
6.0	0.0	0.0	0.0	0.0	0.091	
7.0	0.0	0.0	0.0	0.0	0.105	
8.0	0.0	0.0	0.0	0.0	0.123	
9.0	0.0	0.0	0.0	0.0	0.144	
10.0	0.0	0.0	0.0	0.0	0.167	
11.0	0.0	0.0	0.0	0.0	0.193	
12.0	0.0	0.0	0.0	0.0	0.217	
13.0	0.0	0.0	0.0	0.0	0.24	
14.0	0.0	0.0	0.0	0.0	0.249	
15.0	0.0	0.0	0.0	0.0	0.27	
0.0	0.0	0.0	0.0	0.0	0.296	
1.0	0.0	0.0	0.0	0.0	0.319	
2.0	0.0	0.0	0.0	0.0	0.349	
3.0	0.0	0.0	0.0	0.0	0.381	
4.0	0.0	0.0	0.0	0.0	0.41	
5.0	0.0	0.0	0.0	0.0	0.431	
6.0	0.0	0.0	0.0	0.0	0.445	
7.0	0.0	0.0	0.0	0.0	0.439	
8.0	0.0	0.0	0.0	0.0	0.416	
9.0	0.0	0.0	0.0	0.0	0.378	
10.0	0.0	0.0	0.0	0.0	0.34	
11.0	0.0	0.0	0.0	0.0	0.299	
12.0	0.0	0.0	0.0	0.0	0.255	
13.0	0.0	0.0	0.0	0.0	0.205	
14.0	0.0	0.0	0.0	0.0	0.149	
15.0	0.0	0.0	0.0	0.0	0.094	
0.0	0.0	0.0	0.0	0.0	0.038	
1.0	0.0	0.0	0.0	0.0	-0.021	
2.0	0.0	0.0	0.0	0.0	-0.082	
3.0	0.0	0.0	0.0	0.0	-0.132	
4.0	0.0	0.0	0.0	0.0	-0.176	
5.0	0.0	0.0	0.0	0.0	-0.208	
6.0	0.0	0.0	0.0	0.0	-0.231	
7.0	0.0	0.0	0.0	0.0	-0.237	
8.0	0.0	0.0	0.0	0.0	-0.237	
9.0	0.0	0.0	0.0	0.0	-0.234	
10.0	0.0	0.0	0.0	0.0	-0.226	
11.0	0.0	0.0	0.0	0.0	-0.217	
12.0	0.0	0.0	0.0	0.0	-0.205	
13.0	0.0	0.0	0.0	0.0	-0.196	
14.0	0.0	0.0	0.0	0.0	-0.19	
15.0	0.0	0.0	0.0	0.0	-0.185	
0.0	0.0	0.0	0.0	0.0	-0.179	
1.0	0.0	0.0	0.0	0.0	-0.173	
2.0	0.0	0.0	0.0	0.0	-0.167	
3.0	0.0	0.0	0.0	0.0	-0.164	
4.0	0.0	0.0	0.0	0.0	-0.161	
5.0	0.0	0.0	0.0	0.0	-0.155	
6.0	0.0	0.0	0.0	0.0	-0.152	
7.0	0.0	0.0	0.0	0.0	-0.144	
8.0	0.0	0.0	0.0	0.0	-0.126	
9.0	0.0	0.0	0.0	0.0	-0.111	
10.0	0.0	0.0	0.0	0.0	-0.094	
11.0	0.0	0.0	0.0	0.0	-0.073	
12.0	0.0	0.0	0.0	0.0	-0.053	
13.0	0.0	0.0	0.0	0.0	-0.032	
14.0	0.0	0.0	0.0	0.0	-0.015	
15.0	0.0	0.0	0.0	0.0	-0.003	
0.0	0.0	0.0	0.0	0.0	0.006	
1.0	0.0	0.0	0.0	0.0	0.009	
2.0	0.0	0.0	0.0	0.0	0.009	
3.0	0.0	0.0	0.0	0.0	0.003	
4.0	0.0	0.0	0.0	0.0	-0.009	
5.0	0.0	0.0	0.0	0.0	-0.021	
6.0	0.0	0.0	0.0	0.0	-0.032	
7.0	0.0	0.0	0.0	0.0	-0.044	
8.0	0.0	0.0	0.0	0.0	-0.056	
9.0	0.0	0.0	0.0	0.0	-0.064	
10.0	0.0	0.0	0.0	0.0	-0.085	
11.0	0.0	0.0	0.0	0.0	-0.085	
12.0	0.0	0.0	0.0	0.0	-0.076	
13.0	0.0	0.0	0.0	0.0	-0.067	
14.0	0.0	0.0	0.0	0.0	-0.053	
15.0	0.0	0.0	0.0	0.0	-0.035	
0.0	0.0	0.0	0.0	0.0	-0.018	
1.0	0.0	0.0	0.0	0.0	-0.003	
2.0	0.0	0.0	0.0	0.0	0.012	
3.0	0.0	0.0	0.0	0.0	0.023	
4.0	0.0	0.0	0.0	0.0	0.029	
5.0	0.0	0.0	0.0	0.0	0.032	
6.0	0.0	0.0	0.0	0.0	0.026	
7.0	0.0	0.0	0.0	0.0	0.021	
8.0	0.0	0.0	0.0	0.0	0.012	
9.0	0.0	0.0	0.0	0.0	0.0	
10.0	0.0	0.0	0.0	0.0	-0.015	
11.0	0.0	0.0	0.0	0.0	-0.029	
12.0	0.0	0.0	0.0	0.0	-0.041	
13.0	0.0	0.0	0.0	0.0	-0.05	
14.0	0.0	0.0	0.0	0.0	-0.07	
15.0	0.0	0.0	0.0	0.0	-0.07	
0.0	0.0	0.0	0.0	0.0	-0.064	
1.0	0.0	0.0	0.0	0.0	-0.053	
2.0	0.0	0.0	0.0	0.0	-0.041	
3.0	0.0	0.0	0.0	0.0	-0.023	
4.0	0.0	0.0	0.0	0.0	-0.006	
5.0	0.0	0.0	0.0	0.0	0.012	
6.0	0.0	0.0	0.0	0.0	0.026	
7.0	0.0	0.0	0.0	0.0	0.038	
8.0	0.0	0.0	0.0	0.0	0.044	
9.0	0.0	0.0	0.0	0.0	0.044	
10.0	0.0	0.0	0.0	0.0	0.044	
11.0	0.0	0.0	0.0	0.0	0.035	
12.0	0.0	0.0	0.0	0.0	0.026	
13.0	0.0	0.0	0.0	0.0	0.012	
14.0	0.0	0.0	0.0	0.0	-0.003	
15.0	0.0	0.0	0.0	0.0	-0.015	
0.0	0.0	0.0	0.0	0.0	-0.026	
1.0	0.0	0.0	0.0	0.0	-0.035	
2.0	0.0	0.0	0.0	0.0	-0.041	
3.0	0.0	0.0	0.0	0.0	-0.041	
4.0	0.0	0.0	0.0	0.0	-0.035	
5.0	0.0	0.0	0.0	0.0	-0.026	
6.0	0.0	0.0	0.0	0.0	-0.015	
7.0	0.0	0.0	0.0	0.0	0.003	
8.0	0.0	0.0	0.0	0.0	0.018	
9.0	0.0	0.0	0.0	0.0	0.032	
10.0	0.0	0.0	0.0	0.0	0.044	
11.0	0.0	0.0	0.0	0.0	0.056	
12.0	0.0	0.0	0.0	0.0	0.059	
13.0	0.0	0.0	0.0	0.0	0.062	
14.0	0.0	0.0	0.0	0.0	0.059	
15.0	0.0	0.0	0.0	0.0	0.053	
0.0	0.0	0.0	0.0	0.0	0.041	
1.0	0.0	0.0	0.0	0.0	0.026	
2.0	0.0	0.0	0.0	0.0	0.018	
3.0	0.0	0.0	0.0	0.0	0.003	
4.0	0.0	0.0	0.0	0.0	-0.012	
5.0	0.0	0.0	0.0	0.0	-0.021	
6.0	0.0	0.0	0.0	0.0	-0.029	
7.0	0.0	0.0	0.0	0.0	-0.029	
8.0	0.0	0.0	0.0	0.0	-0.026	
9.0	0.0	0.0	0.0	0.0	-0.018	
10.0	0.0	0.0	0.0	0.0	-0.006	
11.0	0.0	0.0	0.0	0.0	0.009	
12.0	0.0	0.0	0.0	0.0	0.023	
13.0	0.0	0.0	0.0	0.0	0.041	
14.0	0.0	0.0	0.0	0.0	0.056	
15.0	0.0	0.0	0.0	0.0	0.067	
0.0	0.0	0.0	0.0	0.0	0.073	
1.0	0.0	0.0	0.0	0.0	0.073	
2.0	0.0	0.0	0.0	0.0	0.073	
3.0	0.0	0.0	0.0	0.0	0.064	
4.0	0.0	0.0	0.0	0.0	0.053	
5.0	0.0	0.0	0.0	0.0	0.041	
6.0	0.0	0.0	0.0	0.0	0.029	
7.0	0.0	0.0	0.0	0.0	0.012	
8.0	0.0	0.0	0.0	0.0	0.0	
9.0	0.0	0.0	0.0	0.0	-0.012	
10.0	0.0	0.0	0.0	0.0	-0.026	
11.0	0.0	0.0	0.0	0.0	-0.021	
12.0	0.0	0.0	0.0	0.0	-0.015	
13.0	0.0	0.0	0.0	0.0	-0.009	
14.0	0.0	0.0	0.0	0.0	0.003	
15.0	0.0	0.0	0.0	0.0	0.021	
0.0	0.0	0.0	0.0	0.0	0.038	
1.0	0.0	0.0	0.0	0.0	0.056	
2.0	0.0	0.0	0.0	0.0	0.073	
3.0	0.0	0.0	0.0	0.0	0.088	
4.0	0.0	0.0	0.0	0.0	0.091	
5.0	0.0	0.0	0.0	0.0	0.091	
6.0	0.0	0.0	0.0	0.0	0.088	
7.0	0.0	0.0	0.0	0.0	0.076	
8.0	0.0	0.0	0.0	0.0	0.064	
9.0	0.0	0.0	0.0	0.0	0.05	
10.0	0.0	0.0	0.0	0.0	0.035	
11.0	0.0	0.0	0.0	0.0	0.021	
12.0	0.0	0.0	0.0	0.0	0.003	
13.0	0.0	0.0	0.0	0.0	-0.006	
14.0	0.0	0.0	0.0	0.0	-0.012	
15.0	0.0	0.0	0.0	0.0	-0.012	
0.0	0.0	0.0	0.0	0.0	-0.003	
1.0	0.0	0.0	0.0	0.0	0.003	
2.0	0.0	0.0	0.0	0.0	0.018	
3.0	0.0	0.0	0.0	0.0	0.035	
4.0	0.0	0.0	0.0	0.0	0.056	
5.0	0.0	0.0	0.0	0.0	0.07	
6.0	0.0	0.0	0.0	0.0	0.088	
7.0	0.0	0.0	0.0	0.0	0.097	
8.0	0.0	0.0	0.0	0.0	0.108	
9.0	0.0	0.0	0.0	0.0	0.108	
10.0	0.0	0.0	0.0	0.0	0.105	
11.0	0.0	0.0	0.0	0.0	0.097	
12.0	0.0	0.0	0.0	0.0	0.088	
13.0	0.0	0.0	0.0	0.0	0.07	
14.0	0.0	0.0	0.0	0.0	0.059	
15.0	0.0	0.0	0.0	0.0	0.044	
0.0	0.0	0.0	0.0	0.0	0.029	
1.0	0.0	0.0	0.0	0.0	0.021	
2.0	0.0	0.0	0.0	0.0	0.012	
3.0	0.0	0.0	0.0	0.0	0.015	
4.0	0.0	0.0	0.0	0.0	0.023	
5.0	0.0	0.0	0.0	0.0	0.035	
6.0	0.0	0.0	0.0	0.0	0.053	
7.0	0.0	0.0	0.0	0.0	0.067	
8.0	0.0	0.0	0.0	0.0	0.085	
9.0	0.0	0.0	0.0	0.0	0.103	
10.0	0.0	0.0	0.0	0.0	0.12	
11.0	0.0	0.0	0.0	0.0	0.132	
12.0	0.0	0.0	0.0	0.0	0.141	
13.0	0.0	0.0	0.0	0.0	0.141	
14.0	0.0	0.0	0.0	0.0	0.135	
15.0	0.0	0.0	0.0	0.0	0.126	
0.0	0.0	0.0	0.0	0.0	0.114	
1.0	0.0	0.0	0.0	0.0	0.1	
2.0	0.0	0.0	0.0	0.0	0.088	
3.0	0.0	0.0	0.0	0.0	0.076	
4.0	0.0	0.0	0.0	0.0	0.062	
5.0	0.0	0.0	0.0	0.0	0.05	
6.0	0.0	0.0	0.0	0.0	0.044	
7.0	0.0	0.0	0.0	0.0	0.047	
8.0	0.0	0.0	0.0	0.0	0.056	
9.0	0.0	0.0	0.0	0.0	0.067	
10.0	0.0	0.0	0.0	0.0	0.082	
11.0	0.0	0.0	0.0	0.0	0.097	
12.0	0.0	0.0	0.0	0.0	0.114	
13.0	0.0	0.0	0.0	0.0	0.132	
14.0	0.0	0.0	0.0	0.0	0.149	
15.0	0.0	0.0	0.0	0.0	0.161	
0.0	0.0	0.0	0.0	0.0	0.167	
1.0	0.0	0.0	0.0	0.0	0.164	
2.0	0.0	0.0	0.0	0.0	0.158	
3.0	0.0	0.0	0.0	0.0	0.144	
4.0	0.0	0.0	0.0	0.0	0.129	
5.0	0.0	0.0	0.0	0.0	0.114	
6.0	0.0	0.0	0.0	0.0	0.094	
7.0	0.0	0.0	0.0	0.0	0.079	
8.0	0.0	0.0	0.0	0.0	0.067	
9.0	0.0	0.0	0.0	0.0	0.059	
10.0	0.0	0.0	0.0	0.0	0.041	
11.0	0.0	0.0	0.0	0.0	0.044	
12.0	0.0	0.0	0.0	0.0	0.05	
13.0	0.0	0.0	0.0	0.0	0.059	
14.0	0.0	0.0	0.0	0.0	0.07	
15.0	0.0	0.0	0.0	0.0	0.085	
0.0	0.0	0.0	0.0	0.0	0.103	
1.0	0.0	0.0	0.0	0.0	0.114	
2.0	0.0	0.0	0.0	0.0	0.123	
3.0	0.0	0.0	0.0	0.0	0.132	
4.0	0.0	0.0	0.0	0.0	0.138	
5.0	0.0	0.0	0.0	0.0	0.135	
6.0	0.0	0.0	0.0	0.0	0.126	
7.0	0.0	0.0	0.0	0.0	0.114	
8.0	0.0	0.0	0.0	0.0	0.103	
9.0	0.0	0.0	0.0	0.0	0.085	
10.0	0.0	0.0	0.0	0.0	0.067	
11.0	0.0	0.0	0.0	0.0	0.053	
12.0	0.0	0.0	0.0	0.0	0.035	
13.0	0.0	0.0	0.0	0.0	0.023	
14.0	0.0	0.0	0.0	0.0	0.018	
15.0	0.0	0.0	0.0	0.0	0.015	
0.0	0.0	0.0	0.0	0.0	0.018	
1.0	0.0	0.0	0.0	0.0	0.023	
2.0	0.0	0.0	0.0	0.0	0.032	
3.0	0.0	0.0	0.0	0.0	0.044	
4.0	0.0	0.0	0.0	0.0	0.059	
5.0	0.0	0.0	0.0	0.0	0.073	
6.0	0.0	0.0	0.0	0.0	0.088	
7.0	0.0	0.0	0.0	0.0	0.1	
8.0	0.0	0.0	0.0	0.0	0.103	
9.0	0.0	0.0	0.0	0.0	0.1	
10.0	0.0	0.0	0.0	0.0	0.094	
11.0	0.0	0.0	0.0	0.0	0.079	
12.0	0.0	0.0	0.0	0.0	0.064	
13.0	0.0	0.0	0.0	0.0	0.044	
14.0	0.0	0.0	0.0	0.0	0.023	
15.0	0.0	0.0	0.0	0.0	0.009	
0.0	0.0	0.0	0.0	0.0	-0.012	
1.0	0.0	0.0	0.0	0.0	-0.029	
2.0	0.0	0.0	0.0	0.0	-0.041	
3.0	0.0	0.0	0.0	0.0	-0.044	
4.0	0.0	0.0	0.0	0.0	-0.041	
5.0	0.0	0.0	0.0	0.0	-0.038	
6.0	0.0	0.0	0.0	0.0	-0.026	
7.0	0.0	0.0	0.0	0.0	-0.015	
8.0	0.0	0.0	0.0	0.0	-0.006	
9.0	0.0	0.0	0.0	0.0	0.003	
10.0	0.0	0.0	0.0	0.0	0.012	
11.0	0.0	0.0	0.0	0.0	0.021	
12.0	0.0	0.0	0.0	0.0	0.021	
13.0	0.0	0.0	0.0	0.0	0.015	
14.0	0.0	0.0	0.0	0.0	0.003	
15.0	0.0	0.0	0.0	0.0	-0.009	
0.0	0.0	0.0	0.0	0.0	-0.026	
1.0	0.0	0.0	0.0	0.0	-0.047	
2.0	0.0	0.0	0.0	0.0	-0.062	
3.0	0.0	0.0	0.0	0.0	-0.076	
4.0	0.0	0.0	0.0	0.0	-0.094	
5.0	0.0	0.0	0.0	0.0	-0.108	
6.0	0.0	0.0	0.0	0.0	-0.129	
7.0	0.0	0.0	0.0	0.0	-0.132	
8.0	0.0	0.0	0.0	0.0	-0.129	
9.0	0.0	0.0	0.0	0.0	-0.123	
10.0	0.0	0.0	0.0	0.0	-0.117	
11.0	0.0	0.0	0.0	0.0	-0.105	
12.0	0.0	0.0	0.0	0.0	-0.094	
13.0	0.0	0.0	0.0	0.0	-0.082	
14.0	0.0	0.0	0.0	0.0	-0.067	
15.0	0.0	0.0	0.0	0.0	-0.059	
0.0	0.0	0.0	0.0	0.0	-0.056	
1.0	0.0	0.0	0.0	0.0	-0.059	
2.0	0.0	0.0	0.0	0.0	-0.067	
3.0	0.0	0.0	0.0	0.0	-0.082	
4.0	0.0	0.0	0.0	0.0	-0.097	
5.0	0.0	0.0	0.0	0.0	-0.114	
6.0	0.0	0.0	0.0	0.0	-0.132	
7.0	0.0	0.0	0.0	0.0	-0.146	
8.0	0.0	0.0	0.0	0.0	-0.158	
9.0	0.0	0.0	0.0	0.0	-0.167	
10.0	0.0	0.0	0.0	0.0	-0.176	
11.0	0.0	0.0	0.0	0.0	-0.179	
12.0	0.0	0.0	0.0	0.0	-0.173	
13.0	0.0	0.0	0.0	0.0	-0.161	
14.0	0.0	0.0	0.0	0.0	-0.149	
15.0	0.0	0.0	0.0	0.0	-0.138	
0.0	0.0	0.0	0.0	0.0	-0.123	
1.0	0.0	0.0	0.0	0.0	-0.111	
2.0	0.0	0.0	0.0	0.0	-0.097	
3.0	0.0	0.0	0.0	0.0	-0.085	
4.0	0.0	0.0	0.0	0.0	-0.079	
5.0	0.0	0.0	0.0	0.0	-0.079	
6.0	0.0	0.0	0.0	0.0	-0.082	
7.0	0.0	0.0	0.0	0.0	-0.088	
8.0	0.0	0.0	0.0	0.0	-0.097	
9.0	0.0	0.0	0.0	0.0	-0.108	
10.0	0.0	0.0	0.0	0.0	-0.129	
11.0	0.0	0.0	0.0	0.0	-0.144	
12.0	0.0	0.0	0.0	0.0	-0.152	
13.0	0.0	0.0	0.0	0.0	-0.161	
14.0	0.0	0.0	0.0	0.0	-0.17	
15.0	0.0	0.0	0.0	0.0	-0.167	
0.0	0.0	0.0	0.0	0.0	-0.161	
1.0	0.0	0.0	0.0	0.0	-0.149	
2.0	0.0	0.0	0.0	0.0	-0.138	
3.0	0.0	0.0	0.0	0.0	-0.123	
4.0	0.0	0.0	0.0	0.0	-0.105	
5.0	0.0	0.0	0.0	0.0	-0.091	
6.0	0.0	0.0	0.0	0.0	-0.076	
7.0	0.0	0.0	0.0	0.0	-0.064	
8.0	0.0	0.0	0.0	0.0	-0.056	
9.0	0.0	0.0	0.0	0.0	-0.053	
10.0	0.0	0.0	0.0	0.0	-0.056	
11.0	0.0	0.0	0.0	0.0	-0.067	
12.0	0.0	0.0	0.0	0.0	-0.076	
13.0	0.0	0.0	0.0	0.0	-0.091	
14.0	0.0	0.0	0.0	0.0	-0.105	
15.0	0.0	0.0	0.0	0.0	-0.12	
0.0	0.0	0.0	0.0	0.0	-0.135	
1.0	0.0	0.0	0.0	0.0	-0.144	
2.0	0.0	0.0	0.0	0.0	-0.155	
3.0	0.0	0.0	0.0	0.0	-0.152	
4.0	0.0	0.0	0.0	0.0	-0.144	
5.0	0.0	0.0	0.0	0.0	-0.129	
6.0	0.0	0.0	0.0	0.0	-0.114	
7.0	0.0	0.0	0.0	0.0	-0.1	
8.0	0.0	0.0	0.0	0.0	-0.082	
9.0	0.0	0.0	0.0	0.0	-0.067	
10.0	0.0	0.0	0.0	0.0	-0.053	
11.0	0.0	0.0	0.0	0.0	-0.041	
12.0	0.0	0.0	0.0	0.0	-0.029	
13.0	0.0	0.0	0.0	0.0	-0.026	
14.0	0.0	0.0	0.0	0.0	-0.032	
15.0	0.0	0.0	0.0	0.0	-0.038	
0.0	0.0	0.0	0.0	0.0	-0.053	
1.0	0.0	0.0	0.0	0.0	-0.064	
2.0	0.0	0.0	0.0	0.0	-0.079	
3.0	0.0	0.0	0.0	0.0	-0.091	
4.0	0.0	0.0	0.0	0.0	-0.1	
5.0	0.0	0.0	0.0	0.0	-0.105	
6.0	0.0	0.0	0.0	0.0	-0.111	
7.0	0.0	0.0	0.0	0.0	-0.111	
8.0	0.0	0.0	0.0	0.0	-0.108	
9.0	0.0	0.0	0.0	0.0	-0.1	
10.0	0.0	0.0	0.0	0.0	-0.088	
11.0	0.0	0.0	0.0	0.0	-0.07	
12.0	0.0	0.0	0.0	0.0	-0.056	
13.0	0.0	0.0	0.0	0.0	-0.041	
14.0	0.0	0.0	0.0	0.0	-0.026	
15.0	0.0	0.0	0.0	0.0	-0.021	
0.0	0.0	0.0	0.0	0.0	-0.012	
1.0	0.0	0.0	0.0	0.0	-0.012	
2.0	0.0	0.0	0.0	0.0	-0.012	
3.0	0.0	0.0	0.0	0.0	-0.018	
4.0	0.0	0.0	0.0	0.0	-0.026	
5.0	0.0	0.0	0.0	0.0	-0.041	
6.0	0.0	0.0	0.0	0.0	-0.053	
7.0	0.0	0.0	0.0	0.0	-0.067	
8.0	0.0	0.0	0.0	0.0	-0.079	
9.0	0.0	0.0	0.0	0.0	-0.091	
10.0	0.0	0.0	0.0	0.0	-0.103	
11.0	0.0	0.0	0.0	0.0	-0.103	
12.0	0.0	0.0	0.0	0.0	-0.091	
13.0	0.0	0.0	0.0	0.0	-0.085	
14.0	0.0	0.0	0.0	0.0	-0.073	
15.0	0.0	0.0	0.0	0.0	-0.059	
0.0	0.0	0.0	0.0	0.0	-0.047	
1.0	0.0	0.0	0.0	0.0	-0.026	
2.0	0.0	0.0	0.0	0.0	-0.015	
3.0	0.0	0.0	0.0	0.0	-0.009	
4.0	0.0	0.0	0.0	0.0	0.0	
5.0	0.0	0.0	0.0	0.0	0.0	
6.0	0.0	0.0	0.0	0.0	-0.003	
7.0	0.0	0.0	0.0	0.0	-0.009	
8.0	0.0	0.0	0.0	0.0	-0.015	
9.0	0.0	0.0	0.0	0.0	-0.023	
10.0	0.0	0.0	0.0	0.0	-0.038	
11.0	0.0	0.0	0.0	0.0	-0.053	
12.0	0.0	0.0	0.0	0.0	-0.07	
13.0	0.0	0.0	0.0	0.0	-0.079	
14.0	0.0	0.0	0.0	0.0	-0.085	
15.0	0.0	0.0	0.0	0.0	-0.085	
0.0	0.0	0.0	0.0	0.0	-0.079	
1.0	0.0	0.0	0.0	0.0	-0.073	
2.0	0.0	0.0	0.0	0.0	-0.059	
3.0	0.0	0.0	0.0	0.0	-0.044	
4.0	0.0	0.0	0.0	0.0	-0.026	
5.0	0.0	0.0	0.0	0.0	-0.012	
6.0	0.0	0.0	0.0	0.0	-0.003	
7.0	0.0	0.0	0.0	0.0	0.003	
8.0	0.0	0.0	0.0	0.0	0.006	
9.0	0.0	0.0	0.0	0.0	0.009	
10.0	0.0	0.0	0.0	0.0	0.009	
11.0	0.0	0.0	0.0	0.0	0.0	
12.0	0.0	0.0	0.0	0.0	-0.009	
13.0	0.0	0.0	0.0	0.0	-0.021	
14.0	0.0	0.0	0.0	0.0	-0.035	
15.0	0.0	0.0	0.0	0.0	-0.044	
0.0	0.0	0.0	0.0	0.0	-0.053	
1.0	0.0	0.0	0.0	0.0	-0.064	
2.0	0.0	0.0	0.0	0.0	-0.076	
3.0	0.0	0.0	0.0	0.0	-0.073	
4.0	0.0	0.0	0.0	0.0	-0.07	
5.0	0.0	0.0	0.0	0.0	-0.067	
6.0	0.0	0.0	0.0	0.0	-0.059	
7.0	0.0	0.0	0.0	0.0	-0.047	
8.0	0.0	0.0	0.0	0.0	-0.032	
9.0	0.0	0.0	0.0	0.0	-0.015	
10.0	0.0	0.0	0.0	0.0	-0.003	
11.0	0.0	0.0	0.0	0.0	0.009	
12.0	0.0	0.0	0.0	0.0	0.018	
13.0	0.0	0.0	0.0	0.0	0.021	
14.0	0.0	0.0	0.0	0.0	0.012	
15.0	0.0	0.0	0.0	0.0	0.006	
0.0	0.0	0.0	0.0	0.0	-0.003	
1.0	0.0	0.0	0.0	0.0	-0.018	
2.0	0.0	0.0	0.0	0.0	-0.032	
3.0	0.0	0.0	0.0	0.0	-0.041	
4.0	0.0	0.0	0.0	0.0	-0.05	
5.0	0.0	0.0	0.0	0.0	-0.062	
6.0	0.0	0.0	0.0	0.0	-0.085	
7.0	0.0	0.0	0.0	0.0	-0.082	
8.0	0.0	0.0	0.0	0.0	-0.076	
9.0	0.0	0.0	0.0	0.0	-0.067	
10.0	0.0	0.0	0.0	0.0	-0.056	
11.0	0.0	0.0	0.0	0.0	-0.041	
12.0	0.0	0.0	0.0	0.0	-0.026	
13.0	0.0	0.0	0.0	0.0	-0.012	
14.0	0.0	0.0	0.0	0.0	0.003	
15.0	0.0	0.0	0.0	0.0	0.015	
0.0	0.0	0.0	0.0	0.0	0.021	
1.0	0.0	0.0	0.0	0.0	0.023	
2.0	0.0	0.0	0.0	0.0	0.021	
3.0	0.0	0.0	0.0	0.0	0.018	
4.0	0.0	0.0	0.0	0.0	0.006	
5.0	0.0	0.0	0.0	0.0	-0.006	
6.0	0.0	0.0	0.0	0.0	-0.021	
7.0	0.0	0.0	0.0	0.0	-0.035	
8.0	0.0	0.0	0.0	0.0	-0.047	
9.0	0.0	0.0	0.0	0.0	-0.053	
10.0	0.0	0.0	0.0	0.0	-0.059	
11.0	0.0	0.0	0.0	0.0	-0.059	
12.0	0.0	0.0	0.0	0.0	-0.053	
13.0	0.0	0.0	0.0	0.0	-0.044	
14.0	0.0	0.0	0.0	0.0	-0.035	
15.0	0.0	0.0	0.0	0.0	-0.023	
0.0	0.0	0.0	0.0	0.0	-0.012	
1.0	0.0	0.0	0.0	0.0	0.003	
2.0	0.0	0.0	0.0	0.0	0.018	
3.0	0.0	0.0	0.0	0.0	0.029	
4.0	0.0	0.0	0.0	0.0	0.038	
5.0	0.0	0.0	0.0	0.0	0.041	
6.0	0.0	0.0	0.0	0.0	0.038	
7.0	0.0	0.0	0.0	0.0	0.032	
8.0	0.0	0.0	0.0	0.0	0.026	
9.0	0.0	0.0	0.0	0.0	0.018	
10.0	0.0	0.0	0.0	0.0	0.003	
11.0	0.0	0.0	0.0	0.0	-0.009	
12.0	0.0	0.0	0.0	0.0	-0.021	
13.0	0.0	0.0	0.0	0.0	-0.026	
14.0	0.0	0.0	0.0	0.0	-0.05	
15.0	0.0	0.0	0.0	0.0	-0.047	
0.0	0.0	0.0	0.0	0.0	-0.038	
1.0	0.0	0.0	0.0	0.0	-0.026	
2.0	0.0	0.0	0.0	0.0	-0.018	
3.0	0.0	0.0	0.0	0.0	-0.003	
4.0	0.0	0.0	0.0	0.0	0.015	
5.0	0.0	0.0	0.0	0.0	0.029	
6.0	0.0	0.0	0.0	0.0	0.044	
7.0	0.0	0.0	0.0	0.0	0.056	
8.0	0.0	0.0	0.0	0.0	0.064	
9.0	0.0	0.0	0.0	0.0	0.067	
10.0	0.0	0.0	0.0	0.0	0.064	
11.0	0.0	0.0	0.0	0.0	0.059	
12.0	0.0	0.0	0.0	0.0	0.047	
13.0	0.0	0.0	0.0	0.0	0.032	
14.0	0.0	0.0	0.0	0.0	0.026	
15.0	0.0	0.0	0.0	0.0	0.018	
0.0	0.0	0.0	0.0	0.0	0.012	
1.0	0.0	0.0	0.0	0.0	0.015	
2.0	0.0	0.0	0.0	0.0	-0.003	
3.0	0.0	0.0	0.0	0.0	-0.003	
4.0	0.0	0.0	0.0	0.0	0.0	
5.0	0.0	0.0	0.0	0.0	0.006	
6.0	0.0	0.0	0.0	0.0	0.015	
7.0	0.0	0.0	0.0	0.0	0.029	
8.0	0.0	0.0	0.0	0.0	0.038	
9.0	0.0	0.0	0.0	0.0	0.053	
10.0	0.0	0.0	0.0	0.0	0.067	
11.0	0.0	0.0	0.0	0.0	0.073	
12.0	0.0	0.0	0.0	0.0	0.079	
13.0	0.0	0.0	0.0	0.0	0.073	
14.0	0.0	0.0	0.0	0.0	0.07	
15.0	0.0	0.0	0.0	0.0	0.064	
0.0	0.0	0.0	0.0	0.0	0.053	
1.0	0.0	0.0	0.0	0.0	0.041	
2.0	0.0	0.0	0.0	0.0	0.026	
3.0	0.0	0.0	0.0	0.0	0.015	
4.0	0.0	0.0	0.0	0.0	0.003	
5.0	0.0	0.0	0.0	0.0	-0.003	
6.0	0.0	0.0	0.0	0.0	-0.021	
7.0	0.0	0.0	0.0	0.0	-0.012	
8.0	0.0	0.0	0.0	0.0	-0.006	
9.0	0.0	0.0	0.0	0.0	0.0	
10.0	0.0	0.0	0.0	0.0	0.009	
11.0	0.0	0.0	0.0	0.0	0.021	
12.0	0.0	0.0	0.0	0.0	0.029	
13.0	0.0	0.0	0.0	0.0	0.041	
14.0	0.0	0.0	0.0	0.0	0.05	
15.0	0.0	0.0	0.0	0.0	0.056	
0.0	0.0	0.0	0.0	0.0	0.056	
1.0	0.0	0.0	0.0	0.0	0.053	
2.0	0.0	0.0	0.0	0.0	0.047	
3.0	0.0	0.0	0.0	0.0	0.035	
4.0	0.0	0.0	0.0	0.0	0.021	
5.0	0.0	0.0	0.0	0.0	0.006	
6.0	0.0	0.0	0.0	0.0	-0.009	
7.0	0.0	0.0	0.0	0.0	-0.023	
8.0	0.0	0.0	0.0	0.0	-0.041	
9.0	0.0	0.0	0.0	0.0	-0.056	
10.0	0.0	0.0	0.0	0.0	-0.07	
11.0	0.0	0.0	0.0	0.0	-0.073	
12.0	0.0	0.0	0.0	0.0	-0.07	
13.0	0.0	0.0	0.0	0.0	-0.064	
14.0	0.0	0.0	0.0	0.0	-0.056	
15.0	0.0	0.0	0.0	0.0	-0.047	
0.0	0.0	0.0	0.0	0.0	-0.035	
1.0	0.0	0.0	0.0	0.0	-0.026	
2.0	0.0	0.0	0.0	0.0	-0.023	
3.0	0.0	0.0	0.0	0.0	-0.015	
4.0	0.0	0.0	0.0	0.0	-0.006	
5.0	0.0	0.0	0.0	0.0	-0.003	
6.0	0.0	0.0	0.0	0.0	-0.006	
7.0	0.0	0.0	0.0	0.0	-0.015	
8.0	0.0	0.0	0.0	0.0	-0.023	
9.0	0.0	0.0	0.0	0.0	-0.035	
10.0	0.0	0.0	0.0	0.0	-0.047	
11.0	0.0	0.0	0.0	0.0	-0.059	
12.0	0.0	0.0	0.0	0.0	-0.073	
13.0	0.0	0.0	0.0	0.0	-0.085	
14.0	0.0	0.0	0.0	0.0	-0.094	
15.0	0.0	0.0	0.0	0.0	-0.091	
0.0	0.0	0.0	0.0	0.0	-0.085	
1.0	0.0	0.0	0.0	0.0	-0.076	
2.0	0.0	0.0	0.0	0.0	-0.067	
3.0	0.0	0.0	0.0	0.0	-0.053	
4.0	0.0	0.0	0.0	0.0	-0.041	
5.0	0.0	0.0	0.0	0.0	-0.029	
6.0	0.0	0.0	0.0	0.0	-0.015	
7.0	0.0	0.0	0.0	0.0	-0.006	
8.0	0.0	0.0	0.0	0.0	0.0	
9.0	0.0	0.0	0.0	0.0	0.0	
10.0	0.0	0.0	0.0	0.0	-0.006	
11.0	0.0	0.0	0.0	0.0	-0.012	
12.0	0.0	0.0	0.0	0.0	-0.021	
13.0	0.0	0.0	0.0	0.0	-0.029	
14.0	0.0	0.0	0.0	0.0	-0.041	
15.0	0.0	0.0	0.0	0.0	-0.056	
0.0	0.0	0.0	0.0	0.0	-0.07	
1.0	0.0	0.0	0.0	0.0	-0.082	
2.0	0.0	0.0	0.0	0.0	-0.1	
3.0	0.0	0.0	0.0	0.0	-0.097	
4.0	0.0	0.0	0.0	0.0	-0.088	
5.0	0.0	0.0	0.0	0.0	-0.079	
6.0	0.0	0.0	0.0	0.0	-0.064	
7.0	0.0	0.0	0.0	0.0	-0.053	
8.0	0.0	0.0	0.0	0.0	-0.038	
9.0	0.0	0.0	0.0	0.0	-0.021	
10.0	0.0	0.0	0.0	0.0	-0.009	
11.0	0.0	0.0	0.0	0.0	0.0	
12.0	0.0	0.0	0.0	0.0	0.003	
13.0	0.0	0.0	0.0	0.0	0.0	
14.0	0.0	0.0	0.0	0.0	-0.003	
15.0	0.0	0.0	0.0	0.0	-0.009	
0.0	0.0	0.0	0.0	0.0	-0.015	
1.0	0.0	0.0	0.0	0.0	-0.023	
2.0	0.0	0.0	0.0	0.0	-0.038	
3.0	0.0	0.0	0.0	0.0	-0.047	
4.0	0.0	0.0	0.0	0.0	-0.059	
5.0	0.0	0.0	0.0	0.0	-0.067	
6.0	0.0	0.0	0.0	0.0	-0.091	
7.0	0.0	0.0	0.0	0.0	-0.088	
8.0	0.0	0.0	0.0	0.0	-0.082	
9.0	0.0	0.0	0.0	0.0	-0.07	
10.0	0.0	0.0	0.0	0.0	-0.059	
11.0	0.0	0.0	0.0	0.0	-0.044	
12.0	0.0	0.0	0.0	0.0	-0.032	
13.0	0.0	0.0	0.0	0.0	-0.021	
14.0	0.0	0.0	0.0	0.0	-0.006	
15.0	0.0	0.0	0.0	0.0	0.006	
0.0	0.0	0.0	0.0	0.0	0.009	
1.0	0.0	0.0	0.0	0.0	0.012	
2.0	0.0	0.0	0.0	0.0	0.012	
3.0	0.0	0.0	0.0	0.0	0.009	
4.0	0.0	0.0	0.0	0.0	0.0	
5.0	0.0	0.0	0.0	0.0	-0.006	
6.0	0.0	0.0	0.0	0.0	-0.021	
7.0	0.0	0.0	0.0	0.0	-0.041	
8.0	0.0	0.0	0.0	0.0	-0.056	
9.0	0.0	0.0	0.0	0.0	-0.067	
10.0	0.0	0.0	0.0	0.0	-0.088	
11.0	0.0	0.0	0.0	0.0	-0.085	
12.0	0.0	0.0	0.0	0.0	-0.079	
13.0	0.0	0.0	0.0	0.0	-0.073	
14.0	0.0	0.0	0.0	0.0	-0.067	
15.0	0.0	0.0	0.0	0.0	-0.059	
0.0	0.0	0.0	0.0	0.0	-0.05	
1.0	0.0	0.0	0.0	0.0	-0.032	
2.0	0.0	0.0	0.0	0.0	-0.015	
3.0	0.0	0.0	0.0	0.0	-0.009	
4.0	0.0	0.0	0.0	0.0	0.0	
5.0	0.0	0.0	0.0	0.0	0.0	
6.0	0.0	0.0	0.0	0.0	0.003	
7.0	0.0	0.0	0.0	0.0	0.006	
8.0	0.0	0.0	0.0	0.0	0.006	
9.0	0.0	0.0	0.0	0.0	0.006	
10.0	0.0	0.0	0.0	0.0	0.006	
11.0	0.0	0.0	0.0	0.0	0.012	
12.0	0.0	0.0	0.0	0.0	0.021	
13.0	0.0	0.0	0.0	0.0	0.032	
14.0	0.0	0.0	0.0	0.0	0.035	
15.0	0.0	0.0	0.0	0.0	0.067	
0.0	0.0	0.0	0.0	0.0	0.103	
1.0	0.0	0.0	0.0	0.0	0.146	
2.0	0.0	0.0	0.0	0.0	0.196	
3.0	0.0	0.0	0.0	0.0	0.24	
4.0	0.0	0.0	0.0	0.0	0.275	
5.0	0.0	0.0	0.0	0.0	0.308	
6.0	0.0	0.0	0.0	0.0	0.34	
7.0	0.0	0.0	0.0	0.0	0.363	
8.0	0.0	0.0	0.0	0.0	0.375	
9.0	0.0	0.0	0.0	0.0	0.384	
10.0	0.0	0.0	0.0	0.0	0.393	
11.0	0.0	0.0	0.0	0.0	0.396	
12.0	0.0	0.0	0.0	0.0	0.387	
13.0	0.0	0.0	0.0	0.0	0.357	
14.0	0.0	0.0	0.0	0.0	0.319	
15.0	0.0	0.0	0.0	0.0	0.278	
0.0	0.0	0.0	0.0	0.0	0.234	
1.0	0.0	0.0	0.0	0.0	0.193	
2.0	0.0	0.0	0.0	0.0	0.144	
3.0	0.0	0.0	0.0	0.0	0.105	
4.0	0.0	0.0	0.0	0.0	0.076	
5.0	0.0	0.0	0.0	0.0	0.047	
6.0	0.0	0.0	0.0	0.0	0.021	
7.0	0.0	0.0	0.0	0.0	-0.009	
8.0	0.0	0.0	0.0	0.0	-0.038	
9.0	0.0	0.0	0.0	0.0	-0.07	
10.0	0.0	0.0	0.0	0.0	-0.1	
11.0	0.0	0.0	0.0	0.0	-0.129	
12.0	0.0	0.0	0.0	0.0	-0.149	
13.0	0.0	0.0	0.0	0.0	-0.17	
14.0	0.0	0.0	0.0	0.0	-0.185	
15.0	0.0	0.0	0.0	0.0	-0.196	
0.0	0.0	0.0	0.0	0.0	-0.205	
1.0	0.0	0.0	0.0	0.0	-0.214	
2.0	0.0	0.0	0.0	0.0	-0.226	
3.0	0.0	0.0	0.0	0.0	-0.231	
4.0	0.0	0.0	0.0	0.0	-0.234	
5.0	0.0	0.0	0.0	0.0	-0.231	
6.0	0.0	0.0	0.0	0.0	-0.246	
7.0	0.0	0.0	0.0	0.0	-0.234	
8.0	0.0	0.0	0.0	0.0	-0.217	
9.0	0.0	0.0	0.0	0.0	-0.196	
10.0	0.0	0.0	0.0	0.0	-0.167	
11.0	0.0	0.0	0.0	0.0	-0.144	
12.0	0.0	0.0	0.0	0.0	-0.114	
13.0	0.0	0.0	0.0	0.0	-0.085	
14.0	0.0	0.0	0.0	0.0	-0.064	
15.0	0.0	0.0	0.0	0.0	-0.047	
0.0	0.0	0.0	0.0	0.0	-0.029	
1.0	0.0	0.0	0.0	0.0	-0.023	
2.0	0.0	0.0	0.0	0.0	-0.021	
3.0	0.0	0.0	0.0	0.0	-0.023	
4.0	0.0	0.0	0.0	0.0	-0.026	
5.0	0.0	0.0	0.0	0.0	-0.038	
6.0	0.0	0.0	0.0	0.0	-0.047	
7.0	0.0	0.0	0.0	0.0	-0.053	
8.0	0.0	0.0	0.0	0.0	-0.064	
9.0	0.0	0.0	0.0	0.0	-0.076	
10.0	0.0	0.0	0.0	0.0	-0.091	
11.0	0.0	0.0	0.0	0.0	-0.088	
12.0	0.0	0.0	0.0	0.0	-0.082	
13.0	0.0	0.0	0.0	0.0	-0.073	
14.0	0.0	0.0	0.0	0.0	-0.062	
15.0	0.0	0.0	0.0	0.0	-0.047	
0.0	0.0	0.0	0.0	0.0	-0.029	
1.0	0.0	0.0	0.0	0.0	-0.015	
2.0	0.0	0.0	0.0	0.0	-0.003	
3.0	0.0	0.0	0.0	0.0	0.006	
4.0	0.0	0.0	0.0	0.0	0.018	
5.0	0.0	0.0	0.0	0.0	0.018	
6.0	0.0	0.0	0.0	0.0	0.015	
7.0	0.0	0.0	0.0	0.0	0.009	
8.0	0.0	0.0	0.0	0.0	0.0	
9.0	0.0	0.0	0.0	0.0	-0.009	
10.0	0.0	0.0	0.0	0.0	-0.021	
11.0	0.0	0.0	0.0	0.0	-0.029	
12.0	0.0	0.0	0.0	0.0	-0.041	
13.0	0.0	0.0	0.0	0.0	-0.05	
14.0	0.0	0.0	0.0	0.0	-0.059	
15.0	0.0	0.0	0.0	0.0	-0.059	
0.0	0.0	0.0	0.0	0.0	-0.053	
1.0	0.0	0.0	0.0	0.0	-0.047	
2.0	0.0	0.0	0.0	0.0	-0.038	
3.0	0.0	0.0	0.0	0.0	-0.023	
4.0	0.0	0.0	0.0	0.0	-0.009	
5.0	0.0	0.0	0.0	0.0	0.006	
6.0	0.0	0.0	0.0	0.0	0.018	
7.0	0.0	0.0	0.0	0.0	0.029	
8.0	0.0	0.0	0.0	0.0	0.032	
9.0	0.0	0.0	0.0	0.0	0.035	
10.0	0.0	0.0	0.0	0.0	0.032	
11.0	0.0	0.0	0.0	0.0	0.026	
12.0	0.0	0.0	0.0	0.0	0.021	
13.0	0.0	0.0	0.0	0.0	0.009	
14.0	0.0	0.0	0.0	0.0	-0.003	
15.0	0.0	0.0	0.0	0.0	-0.015	
0.0	0.0	0.0	0.0	0.0	-0.023	
1.0	0.0	0.0	0.0	0.0	-0.032	
2.0	0.0	0.0	0.0	0.0	-0.05	
3.0	0.0	0.0	0.0	0.0	-0.047	
4.0	0.0	0.0	0.0	0.0	-0.047	
5.0	0.0	0.0	0.0	0.0	-0.038	
6.0	0.0	0.0	0.0	0.0	-0.026	
7.0	0.0	0.0	0.0	0.0	-0.015	
8.0	0.0	0.0	0.0	0.0	0.0	
9.0	0.0	0.0	0.0	0.0	0.012	
10.0	0.0	0.0	0.0	0.0	0.023	
11.0	0.0	0.0	0.0	0.0	0.032	
12.0	0.0	0.0	0.0	0.0	0.038	
13.0	0.0	0.0	0.0	0.0	0.041	
14.0	0.0	0.0	0.0	0.0	0.038	
15.0	0.0	0.0	0.0	0.0	0.032	
0.0	0.0	0.0	0.0	0.0	0.023	
1.0	0.0	0.0	0.0	0.0	0.012	
2.0	0.0	0.0	0.0	0.0	0.003	
3.0	0.0	0.0	0.0	0.0	-0.006	
4.0	0.0	0.0	0.0	0.0	-0.015	
5.0	0.0	0.0	0.0	0.0	-0.023	
6.0	0.0	0.0	0.0	0.0	-0.047	
7.0	0.0	0.0	0.0	0.0	-0.047	
8.0	0.0	0.0	0.0	0.0	-0.041	
9.0	0.0	0.0	0.0	0.0	-0.032	
10.0	0.0	0.0	0.0	0.0	-0.023	
11.0	0.0	0.0	0.0	0.0	-0.012	
12.0	0.0	0.0	0.0	0.0	0.0	
13.0	0.0	0.0	0.0	0.0	0.018	
14.0	0.0	0.0	0.0	0.0	0.026	
15.0	0.0	0.0	0.0	0.0	0.035	
0.0	0.0	0.0	0.0	0.0	0.044	
1.0	0.0	0.0	0.0	0.0	0.044	
2.0	0.0	0.0	0.0	0.0	0.044	
3.0	0.0	0.0	0.0	0.0	0.038	
4.0	0.0	0.0	0.0	0.0	0.035	
5.0	0.0	0.0	0.0	0.0	0.023	
6.0	0.0	0.0	0.0	0.0	0.012	
7.0	0.0	0.0	0.0	0.0	0.0	
8.0	0.0	0.0	0.0	0.0	-0.012	
9.0	0.0	0.0	0.0	0.0	-0.015	
10.0	0.0	0.0	0.0	0.0	-0.021	
11.0	0.0	0.0	0.0	0.0	-0.021	
12.0	0.0	0.0	0.0	0.0	-0.018	
13.0	0.0	0.0	0.0	0.0	-0.012	
14.0	0.0	0.0	0.0	0.0	0.0	
15.0	0.0	0.0	0.0	0.0	0.012	
0.0	0.0	0.0	0.0	0.0	0.026	
1.0	0.0	0.0	0.0	0.0	0.038	
2.0	0.0	0.0	0.0	0.0	0.05	
3.0	0.0	0.0	0.0	0.0	0.059	
4.0	0.0	0.0	0.0	0.0	0.064	
5.0	0.0	0.0	0.0	0.0	0.067	
6.0	0.0	0.0	0.0	0.0	0.064	
7.0	0.0	0.0	0.0	0.0	0.056	
8.0	0.0	0.0	0.0	0.0	0.05	
9.0	0.0	0.0	0.0	0.0	0.038	
10.0	0.0	0.0	0.0	0.0	0.026	
11.0	0.0	0.0	0.0	0.0	0.018	
12.0	0.0	0.0	0.0	0.0	0.006	
13.0	0.0	0.0	0.0	0.0	0.0	
14.0	0.0	0.0	0.0	0.0	-0.012	
15.0	0.0	0.0	0.0	0.0	-0.006	
0.0	0.0	0.0	0.0	0.0	0.0	
1.0	0.0	0.0	0.0	0.0	0.009	
2.0	0.0	0.0	0.0	0.0	0.021	
3.0	0.0	0.0	0.0	0.0	0.032	
4.0	0.0	0.0	0.0	0.0	0.044	
5.0	0.0	0.0	0.0	0.0	0.056	
6.0	0.0	0.0	0.0	0.0	0.07	
7.0	0.0	0.0	0.0	0.0	0.079	
8.0	0.0	0.0	0.0	0.0	0.088	
9.0	0.0	0.0	0.0	0.0	0.088	
10.0	0.0	0.0	0.0	0.0	0.085	
11.0	0.0	0.0	0.0	0.0	0.082	
12.0	0.0	0.0	0.0	0.0	0.079	
13.0	0.0	0.0	0.0	0.0	0.067	
14.0	0.0	0.0	0.0	0.0	0.053	
15.0	0.0	0.0	0.0	0.0	0.041	
0.0	0.0	0.0	0.0	0.0	0.026	
1.0	0.0	0.0	0.0	0.0	0.021	
2.0	0.0	0.0	0.0	0.0	0.006	
3.0	0.0	0.0	0.0	0.0	0.009	
4.0	0.0	0.0	0.0	0.0	0.015	
5.0	0.0	0.0	0.0	0.0	0.023	
6.0	0.0	0.0	0.0	0.0	0.035	
7.0	0.0	0.0	0.0	0.0	0.05	
8.0	0.0	0.0	0.0	0.0	0.064	
9.0	0.0	0.0	0.0	0.0	0.082	
10.0	0.0	0.0	0.0	0.0	0.097	
11.0	0.0	0.0	0.0	0.0	0.103	
12.0	0.0	0.0	0.0	0.0	0.111	
13.0	0.0	0.0	0.0	0.0	0.12	
14.0	0.0	0.0	0.0	0.0	0.117	
15.0	0.0	0.0	0.0	0.0	0.114	
0.0	0.0	0.0	0.0	0.0	0.105	
1.0	0.0	0.0	0.0	0.0	0.094	
2.0	0.0	0.0	0.0	0.0	0.085	
3.0	0.0	0.0	0.0	0.0	0.07	
4.0	0.0	0.0	0.0	0.0	0.062	
5.0	0.0	0.0	0.0	0.0	0.056	
6.0	0.0	0.0	0.0	0.0	0.038	
7.0	0.0	0.0	0.0	0.0	0.038	
8.0	0.0	0.0	0.0	0.0	0.041	
9.0	0.0	0.0	0.0	0.0	0.047	
10.0	0.0	0.0	0.0	0.0	0.056	
11.0	0.0	0.0	0.0	0.0	0.064	
12.0	0.0	0.0	0.0	0.0	0.079	
13.0	0.0	0.0	0.0	0.0	0.097	
14.0	0.0	0.0	0.0	0.0	0.114	
15.0	0.0	0.0	0.0	0.0	0.126	
0.0	0.0	0.0	0.0	0.0	0.132	
1.0	0.0	0.0	0.0	0.0	0.138	
2.0	0.0	0.0	0.0	0.0	0.141	
3.0	0.0	0.0	0.0	0.0	0.135	
4.0	0.0	0.0	0.0	0.0	0.126	
5.0	0.0	0.0	0.0	0.0	0.114	
6.0	0.0	0.0	0.0	0.0	0.103	
7.0	0.0	0.0	0.0	0.0	0.091	
8.0	0.0	0.0	0.0	0.0	0.082	
9.0	0.0	0.0	0.0	0.0	0.073	
10.0	0.0	0.0	0.0	0.0	0.044	
11.0	0.0	0.0	0.0	0.0	0.044	
12.0	0.0	0.0	0.0	0.0	0.05	
13.0	0.0	0.0	0.0	0.0	0.059	
14.0	0.0	0.0	0.0	0.0	0.067	
15.0	0.0	0.0	0.0	0.0	0.079	
0.0	0.0	0.0	0.0	0.0	0.094	
1.0	0.0	0.0	0.0	0.0	0.105	
2.0	0.0	0.0	0.0	0.0	0.12	
3.0	0.0	0.0	0.0	0.0	0.132	
4.0	0.0	0.0	0.0	0.0	0.135	
5.0	0.0	0.0	0.0	0.0	0.138	
6.0	0.0	0.0	0.0	0.0	0.135	
7.0	0.0	0.0	0.0	0.0	0.129	
8.0	0.0	0.0	0.0	0.0	0.12	
9.0	0.0	0.0	0.0	0.0	0.108	
10.0	0.0	0.0	0.0	0.0	0.097	
11.0	0.0	0.0	0.0	0.0	0.082	
12.0	0.0	0.0	0.0	0.0	0.07	
13.0	0.0	0.0	0.0	0.0	0.062	
14.0	0.0	0.0	0.0	0.0	0.05	
15.0	0.0	0.0	0.0	0.0	0.05	
0.0	0.0	0.0	0.0	0.0	0.05	
1.0	0.0	0.0	0.0	0.0	0.056	
2.0	0.0	0.0	0.0	0.0	0.067	
3.0	0.0	0.0	0.0	0.0	0.076	
4.0	0.0	0.0	0.0	0.0	0.085	
5.0	0.0	0.0	0.0	0.0	0.097	
6.0	0.0	0.0	0.0	0.0	0.105	
7.0	0.0	0.0	0.0	0.0	0.111	
8.0	0.0	0.0	0.0	0.0	0.123	
9.0	0.0	0.0	0.0	0.0	0.12	
10.0	0.0	0.0	0.0	0.0	0.117	
11.0	0.0	0.0	0.0	0.0	0.108	
12.0	0.0	0.0	0.0	0.0	0.094	
13.0	0.0	0.0	0.0	0.0	0.082	
14.0	0.0	0.0	0.0	0.0	0.064	
15.0	0.0	0.0	0.0	0.0	0.05	
0.0	0.0	0.0	0.0	0.0	0.038	
1.0	0.0	0.0	0.0	0.0	0.029	
2.0	0.0	0.0	0.0	0.0	0.009	
3.0	0.0	0.0	0.0	0.0	0.003	
4.0	0.0	0.0	0.0	0.0	0.006	
5.0	0.0	0.0	0.0	0.0	0.009	
6.0	0.0	0.0	0.0	0.0	0.018	
7.0	0.0	0.0	0.0	0.0	0.026	
8.0	0.0	0.0	0.0	0.0	0.035	
9.0	0.0	0.0	0.0	0.0	0.044	
10.0	0.0	0.0	0.0	0.0	0.05	
11.0	0.0	0.0	0.0	0.0	0.056	
12.0	0.0	0.0	0.0	0.0	0.056	
13.0	0.0	0.0	0.0	0.0	0.053	
14.0	0.0	0.0	0.0	0.0	0.047	
15.0	0.0	0.0	0.0	0.0	0.038	
0.0	0.0	0.0	0.0	0.0	0.023	
1.0	0.0	0.0	0.0	0.0	0.006	
2.0	0.0	0.0	0.0	0.0	-0.009	
3.0	0.0	0.0	0.0	0.0	-0.026	
4.0	0.0	0.0	0.0	0.0	-0.044	
5.0	0.0	0.0	0.0	0.0	-0.056	
6.0	0.0	0.0	0.0	0.0	-0.076	
7.0	0.0	0.0	0.0	0.0	-0.079	
8.0	0.0	0.0	0.0	0.0	-0.079	
9.0	0.0	0.0	0.0	0.0	-0.076	
10.0	0.0	0.0	0.0	0.0	-0.07	
11.0	0.0	0.0	0.0	0.0	-0.062	
12.0	0.0	0.0	0.0	0.0	-0.056	
13.0	0.0	0.0	0.0	0.0	-0.044	
14.0	0.0	0.0	0.0	0.0	-0.038	
15.0	0.0	0.0	0.0	0.0	-0.032	
0.0	0.0	0.0	0.0	0.0	-0.029	
1.0	0.0	0.0	0.0	0.0	-0.032	
2.0	0.0	0.0	0.0	0.0	-0.035	
3.0	0.0	0.0	0.0	0.0	-0.047	
4.0	0.0	0.0	0.0	0.0	-0.059	
5.0	0.0	0.0	0.0	0.0	-0.073	
6.0	0.0	0.0	0.0	0.0	-0.088	
7.0	0.0	0.0	0.0	0.0	-0.103	
8.0	0.0	0.0	0.0	0.0	-0.117	
9.0	0.0	0.0	0.0	0.0	-0.132	
10.0	0.0	0.0	0.0	0.0	-0.141	
11.0	0.0	0.0	0.0	0.0	-0.144	
12.0	0.0	0.0	0.0	0.0	-0.141	
13.0	0.0	0.0	0.0	0.0	-0.135	
14.0	0.0	0.0	0.0	0.0	-0.129	
15.0	0.0	0.0	0.0	0.0	-0.117	
0.0	0.0	0.0	0.0	0.0	-0.1	
1.0	0.0	0.0	0.0	0.0	-0.088	
2.0	0.0	0.0	0.0	0.0	-0.079	
3.0	0.0	0.0	0.0	0.0	-0.073	
4.0	0.0	0.0	0.0	0.0	-0.067	
5.0	0.0	0.0	0.0	0.0	-0.067	
6.0	0.0	0.0	0.0	0.0	-0.07	
7.0	0.0	0.0	0.0	0.0	-0.076	
8.0	0.0	0.0	0.0	0.0	-0.088	
9.0	0.0	0.0	0.0	0.0	-0.1	
10.0	0.0	0.0	0.0	0.0	-0.111	
11.0	0.0	0.0	0.0	0.0	-0.12	
12.0	0.0	0.0	0.0	0.0	-0.132	
13.0	0.0	0.0	0.0	0.0	-0.138	
14.0	0.0	0.0	0.0	0.0	-0.146	
15.0	0.0	0.0	0.0	0.0	-0.146	
0.0	0.0	0.0	0.0	0.0	-0.144	
1.0	0.0	0.0	0.0	0.0	-0.138	
2.0	0.0	0.0	0.0	0.0	-0.126	
3.0	0.0	0.0	0.0	0.0	-0.114	
4.0	0.0	0.0	0.0	0.0	-0.1	
5.0	0.0	0.0	0.0	0.0	-0.088	
6.0	0.0	0.0	0.0	0.0	-0.076	
7.0	0.0	0.0	0.0	0.0	-0.067	
8.0	0.0	0.0	0.0	0.0	-0.059	
9.0	0.0	0.0	0.0	0.0	-0.059	
10.0	0.0	0.0	0.0	0.0	-0.059	
11.0	0.0	0.0	0.0	0.0	-0.067	
12.0	0.0	0.0	0.0	0.0	-0.073	
13.0	0.0	0.0	0.0	0.0	-0.082	
14.0	0.0	0.0	0.0	0.0	-0.094	
15.0	0.0	0.0	0.0	0.0	-0.103	
0.0	0.0	0.0	0.0	0.0	-0.114	
1.0	0.0	0.0	0.0	0.0	-0.12	
2.0	0.0	0.0	0.0	0.0	-0.129	
3.0	0.0	0.0	0.0	0.0	-0.126	
4.0	0.0	0.0	0.0	0.0	-0.123	
5.0	0.0	0.0	0.0	0.0	-0.117	
6.0	0.0	0.0	0.0	0.0	-0.105	
7.0	0.0	0.0	0.0	0.0	-0.094	
8.0	0.0	0.0	0.0	0.0	-0.082	
9.0	0.0	0.0	0.0	0.0	-0.067	
10.0	0.0	0.0	0.0	0.0	-0.053	
11.0	0.0	0.0	0.0	0.0	-0.041	
12.0	0.0	0.0	0.0	0.0	-0.035	
13.0	0.0	0.0	0.0	0.0	-0.035	
14.0	0.0	0.0	0.0	0.0	-0.035	
15.0	0.0	0.0	0.0	0.0	-0.041	
0.0	0.0	0.0	0.0	0.0	-0.05	
1.0	0.0	0.0	0.0	0.0	-0.059	
2.0	0.0	0.0	0.0	0.0	-0.067	
3.0	0.0	0.0	0.0	0.0	-0.079	
4.0	0.0	0.0	0.0	0.0	-0.088	
5.0	0.0	0.0	0.0	0.0	-0.094	
6.0	0.0	0.0	0.0	0.0	-0.1	
7.0	0.0	0.0	0.0	0.0	-0.1	
8.0	0.0	0.0	0.0	0.0	-0.097	
9.0	0.0	0.0	0.0	0.0	-0.091	
10.0	0.0	0.0	0.0	0.0	-0.079	
11.0	0.0	0.0	0.0	0.0	-0.067	
12.0	0.0	0.0	0.0	0.0	-0.056	
13.0	0.0	0.0	0.0	0.0	-0.044	
14.0	0.0	0.0	0.0	0.0	-0.035	
15.0	0.0	0.0	0.0	0.0	-0.023	
0.0	0.0	0.0	0.0	0.0	-0.015	
1.0	0.0	0.0	0.0	0.0	-0.015	
2.0	0.0	0.0	0.0	0.0	-0.015	
3.0	0.0	0.0	0.0	0.0	-0.021	
4.0	0.0	0.0	0.0	0.0	-0.026	
5.0	0.0	0.0	0.0	0.0	-0.038	
6.0	0.0	0.0	0.0	0.0	-0.047	
7.0	0.0	0.0	0.0	0.0	-0.056	
8.0	0.0	0.0	0.0	0.0	-0.067	
9.0	0.0	0.0	0.0	0.0	-0.076	
10.0	0.0	0.0	0.0	0.0	-0.085	
11.0	0.0	0.0	0.0	0.0	-0.088	
12.0	0.0	0.0	0.0	0.0	-0.085	
13.0	0.0	0.0	0.0	0.0	-0.076	
14.0	0.0	0.0	0.0	0.0	-0.067	
15.0	0.0	0.0	0.0	0.0	-0.056	
0.0	0.0	0.0	0.0	0.0	-0.044	
1.0	0.0	0.0	0.0	0.0	-0.029	
2.0	0.0	0.0	0.0	0.0	-0.018	
3.0	0.0	0.0	0.0	0.0	-0.009	
4.0	0.0	0.0	0.0	0.0	-0.003	
5.0	0.0	0.0	0.0	0.0	-0.003	
6.0	0.0	0.0	0.0	0.0	-0.003	
7.0	0.0	0.0	0.0	0.0	-0.009	
8.0	0.0	0.0	0.0	0.0	-0.018	
9.0	0.0	0.0	0.0	0.0	-0.029	
10.0	0.0	0.0	0.0	0.0	-0.041	
11.0	0.0	0.0	0.0	0.0	-0.053	
12.0	0.0	0.0	0.0	0.0	-0.064	
13.0	0.0	0.0	0.0	0.0	-0.073	
14.0	0.0	0.0	0.0	0.0	-0.091	
15.0	0.0	0.0	0.0	0.0	-0.085	
0.0	0.0	0.0	0.0	0.0	-0.079	
1.0	0.0	0.0	0.0	0.0	-0.073	
2.0	0.0	0.0	0.0	0.0	-0.062	
3.0	0.0	0.0	0.0	0.0	-0.05	
4.0	0.0	0.0	0.0	0.0	-0.035	
5.0	0.0	0.0	0.0	0.0	-0.021	
6.0	0.0	0.0	0.0	0.0	-0.009	
7.0	0.0	0.0	0.0	0.0	0.0	
8.0	0.0	0.0	0.0	0.0	0.006	
9.0	0.0	0.0	0.0	0.0	0.006	
10.0	0.0	0.0	0.0	0.0	0.006	
11.0	0.0	0.0	0.0	0.0	0.0	
12.0	0.0	0.0	0.0	0.0	-0.009	
13.0	0.0	0.0	0.0	0.0	-0.021	
14.0	0.0	0.0	0.0	0.0	-0.032	
15.0	0.0	0.0	0.0	0.0	-0.044	
0.0	0.0	0.0	0.0	0.0	-0.053	
1.0	0.0	0.0	0.0	0.0	-0.062	
2.0	0.0	0.0	0.0	0.0	-0.076	
3.0	0.0	0.0	0.0	0.0	-0.076	
4.0	0.0	0.0	0.0	0.0	-0.073	
5.0	0.0	0.0	0.0	0.0	-0.064	
6.0	0.0	0.0	0.0	0.0	-0.053	
7.0	0.0	0.0	0.0	0.0	-0.044	
8.0	0.0	0.0	0.0	0.0	-0.029	
9.0	0.0	0.0	0.0	0.0	-0.015	
10.0	0.0	0.0	0.0	0.0	-0.006	
11.0	0.0	0.0	0.0	0.0	0.003	
12.0	0.0	0.0	0.0	0.0	0.009	
13.0	0.0	0.0	0.0	0.0	0.012	
14.0	0.0	0.0	0.0	0.0	0.009	
15.0	0.0	0.0	0.0	0.0	0.006	
0.0	0.0	0.0	0.0	0.0	0.0	
1.0	0.0	0.0	0.0	0.0	-0.012	
2.0	0.0	0.0	0.0	0.0	-0.023	
3.0	0.0	0.0	0.0	0.0	-0.032	
4.0	0.0	0.0	0.0	0.0	-0.044	
5.0	0.0	0.0	0.0	0.0	-0.053	
6.0	0.0	0.0	0.0	0.0	-0.073	
7.0	0.0	0.0	0.0	0.0	-0.07	
8.0	0.0	0.0	0.0	0.0	-0.062	
9.0	0.0	0.0	0.0	0.0	-0.056	
10.0	0.0	0.0	0.0	0.0	-0.044	
11.0	0.0	0.0	0.0	0.0	-0.029	
12.0	0.0	0.0	0.0	0.0	-0.015	
13.0	0.0	0.0	0.0	0.0	0.003	
14.0	0.0	0.0	0.0	0.0	0.015	
15.0	0.0	0.0	0.0	0.0	0.026	
0.0	0.0	0.0	0.0	0.0	0.032	
1.0	0.0	0.0	0.0	0.0	0.035	
2.0	0.0	0.0	0.0	0.0	0.035	
3.0	0.0	0.0	0.0	0.0	0.029	
4.0	0.0	0.0	0.0	0.0	0.021	
5.0	0.0	0.0	0.0	0.0	0.012	
6.0	0.0	0.0	0.0	0.0	0.0	
7.0	0.0	0.0	0.0	0.0	-0.012	
8.0	0.0	0.0	0.0	0.0	-0.018	
9.0	0.0	0.0	0.0	0.0	-0.023	
10.0	0.0	0.0	0.0	0.0	-0.029	
11.0	0.0	0.0	0.0	0.0	-0.023	
12.0	0.0	0.0	0.0	0.0	-0.021	
13.0	0.0	0.0	0.0	0.0	-0.009	
14.0	0.0	0.0	0.0	0.0	0.0	
15.0	0.0	0.0	0.0	0.0	0.012	
0.0	0.0	0.0	0.0	0.0	0.026	
1.0	0.0	0.0	0.0	0.0	0.041	
2.0	0.0	0.0	0.0	0.0	0.053	
3.0	0.0	0.0	0.0	0.0	0.064	
4.0	0.0	0.0	0.0	0.0	0.07	
5.0	0.0	0.0	0.0	0.0	0.073	
6.0	0.0	0.0	0.0	0.0	0.07	
7.0	0.0	0.0	0.0	0.0	0.062	
8.0	0.0	0.0	0.0	0.0	0.05	
9.0	0.0	0.0	0.0	0.0	0.035	
10.0	0.0	0.0	0.0	0.0	0.021	
11.0	0.0	0.0	0.0	0.0	0.009	
12.0	0.0	0.0	0.0	0.0	-0.003	
13.0	0.0	0.0	0.0	0.0	-0.012	
14.0	0.0	0.0	0.0	0.0	-0.035	
15.0	0.0	0.0	0.0	0.0	-0.038	
0.0	0.0	0.0	0.0	0.0	-0.032	
1.0	0.0	0.0	0.0	0.0	-0.029	
2.0	0.0	0.0	0.0	0.0	-0.021	
3.0	0.0	0.0	0.0	0.0	-0.003	
4.0	0.0	0.0	0.0	0.0	0.009	
5.0	0.0	0.0	0.0	0.0	0.023	
6.0	0.0	0.0	0.0	0.0	0.035	
7.0	0.0	0.0	0.0	0.0	0.047	
8.0	0.0	0.0	0.0	0.0	0.053	
9.0	0.0	0.0	0.0	0.0	0.053	
10.0	0.0	0.0	0.0	0.0	0.053	
11.0	0.0	0.0	0.0	0.0	0.047	
12.0	0.0	0.0	0.0	0.0	0.035	
13.0	0.0	0.0	0.0	0.0	0.023	
14.0	0.0	0.0	0.0	0.0	0.012	
15.0	0.0	0.0	0.0	0.0	0.0	
0.0	0.0	0.0	0.0	0.0	-0.015	
1.0	0.0	0.0	0.0	0.0	-0.026	
2.0	0.0	0.0	0.0	0.0	-0.047	
3.0	0.0	0.0	0.0	0.0	-0.05	
4.0	0.0	0.0	0.0	0.0	-0.047	
5.0	0.0	0.0	0.0	0.0	-0.041	
6.0	0.0	0.0	0.0	0.0	-0.032	
7.0	0.0	0.0	0.0	0.0	-0.023	
8.0	0.0	0.0	0.0	0.0	-0.012	
9.0	0.0	0.0	0.0	0.0	0.003	
10.0	0.0	0.0	0.0	0.0	0.012	
11.0	0.0	0.0	0.0	0.0	0.018	
12.0	0.0	0.0	0.0	0.0	0.021	
13.0	0.0	0.0	0.0	0.0	0.018	
14.0	0.0	0.0	0.0	0.0	0.012	
15.0	0.0	0.0	0.0	0.0	0.003	
0.0	0.0	0.0	0.0	0.0	-0.009	
1.0	0.0	0.0	0.0	0.0	-0.021	
2.0	0.0	0.0	0.0	0.0	-0.038	
3.0	0.0	0.0	0.0	0.0	-0.05	
4.0	0.0	0.0	0.0	0.0	-0.067	
5.0	0.0	0.0	0.0	0.0	-0.076	
6.0	0.0	0.0	0.0	0.0	-0.1	
7.0	0.0	0.0	0.0	0.0	-0.1	
8.0	0.0	0.0	0.0	0.0	-0.1	
9.0	0.0	0.0	0.0	0.0	-0.094	
10.0	0.0	0.0	0.0	0.0	-0.085	
11.0	0.0	0.0	0.0	0.0	-0.07	
12.0	0.0	0.0	0.0	0.0	-0.062	
13.0	0.0	0.0	0.0	0.0	-0.047	
14.0	0.0	0.0	0.0	0.0	-0.035	
15.0	0.0	0.0	0.0	0.0	-0.026	
0.0	0.0	0.0	0.0	0.0	-0.023	
1.0	0.0	0.0	0.0	0.0	-0.021	
2.0	0.0	0.0	0.0	0.0	-0.021	
3.0	0.0	0.0	0.0	0.0	-0.023	
4.0	0.0	0.0	0.0	0.0	-0.032	
5.0	0.0	0.0	0.0	0.0	-0.041	
6.0	0.0	0.0	0.0	0.0	-0.053	
7.0	0.0	0.0	0.0	0.0	-0.064	
8.0	0.0	0.0	0.0	0.0	-0.073	
9.0	0.0	0.0	0.0	0.0	-0.082	
10.0	0.0	0.0	0.0	0.0	-0.091	
11.0	0.0	0.0	0.0	0.0	-0.088	
12.0	0.0	0.0	0.0	0.0	-0.085	
13.0	0.0	0.0	0.0	0.0	-0.076	
14.0	0.0	0.0	0.0	0.0	-0.07	
15.0	0.0	0.0	0.0	0.0	-0.059	
0.0	0.0	0.0	0.0	0.0	-0.044	
1.0	0.0	0.0	0.0	0.0	-0.032	
2.0	0.0	0.0	0.0	0.0	-0.021	
3.0	0.0	0.0	0.0	0.0	-0.012	
4.0	0.0	0.0	0.0	0.0	-0.006	
5.0	0.0	0.0	0.0	0.0	-0.006	
6.0	0.0	0.0	0.0	0.0	-0.006	
7.0	0.0	0.0	0.0	0.0	-0.012	
8.0	0.0	0.0	0.0	0.0	-0.021	
9.0	0.0	0.0	0.0	0.0	-0.032	
10.0	0.0	0.0	0.0	0.0	-0.041	
11.0	0.0	0.0	0.0	0.0	-0.053	
12.0	0.0	0.0	0.0	0.0	-0.064	
13.0	0.0	0.0	0.0	0.0	-0.073	
14.0	0.0	0.0	0.0	0.0	-0.085	
15.0	0.0	0.0	0.0	0.0	-0.085	
0.0	0.0	0.0	0.0	0.0	-0.082	
1.0	0.0	0.0	0.0	0.0	-0.073	
2.0	0.0	0.0	0.0	0.0	-0.064	
3.0	0.0	0.0	0.0	0.0	-0.05	
4.0	0.0	0.0	0.0	0.0	-0.035	
5.0	0.0	0.0	0.0	0.0	-0.023	
6.0	0.0	0.0	0.0	0.0	-0.015	
7.0	0.0	0.0	0.0	0.0	-0.006	
8.0	0.0	0.0	0.0	0.0	0.0	
9.0	0.0	0.0	0.0	0.0	0.003	
10.0	0.0	0.0	0.0	0.0	0.0	
11.0	0.0	0.0	0.0	0.0	-0.003	
12.0	0.0	0.0	0.0	0.0	-0.009	
13.0	0.0	0.0	0.0	0.0	-0.021	
14.0	0.0	0.0	0.0	0.0	-0.032	
15.0	0.0	0.0	0.0	0.0	-0.044	
0.0	0.0	0.0	0.0	0.0	-0.056	
1.0	0.0	0.0	0.0	0.0	-0.064	
2.0	0.0	0.0	0.0	0.0	-0.091	
3.0	0.0	0.0	0.0	0.0	-0.088	
4.0	0.0	0.0	0.0	0.0	-0.082	
5.0	0.0	0.0	0.0	0.0	-0.073	
6.0	0.0	0.0	0.0	0.0	-0.064	
7.0	0.0	0.0	0.0	0.0	-0.05	
8.0	0.0	0.0	0.0	0.0	-0.038	
9.0	0.0	0.0	0.0	0.0	-0.026	
10.0	0.0	0.0	0.0	0.0	-0.015	
11.0	0.0	0.0	0.0	0.0	-0.003	
12.0	0.0	0.0	0.0	0.0	0.003	
13.0	0.0	0.0	0.0	0.0	0.006	
14.0	0.0	0.0	0.0	0.0	0.0	
15.0	0.0	0.0	0.0	0.0	-0.006	
0.0	0.0	0.0	0.0	0.0	-0.021	
1.0	0.0	0.0	0.0	0.0	-0.032	
2.0	0.0	0.0	0.0	0.0	-0.047	
3.0	0.0	0.0	0.0	0.0	-0.059	
4.0	0.0	0.0	0.0	0.0	-0.07	
5.0	0.0	0.0	0.0	0.0	-0.076	
6.0	0.0	0.0	0.0	0.0	-0.091	
7.0	0.0	0.0	0.0	0.0	-0.091	
8.0	0.0	0.0	0.0	0.0	-0.085	
9.0	0.0	0.0	0.0	0.0	-0.076	
10.0	0.0	0.0	0.0	0.0	-0.059	
11.0	0.0	0.0	0.0	0.0	-0.038	
12.0	0.0	0.0	0.0	0.0	-0.012	
13.0	0.0	0.0	0.0	0.0	0.012	
14.0	0.0	0.0	0.0	0.0	0.041	
15.0	0.0	0.0	0.0	0.0	0.062	
0.0	0.0	0.0	0.0	0.0	0.088	
1.0	0.0	0.0	0.0	0.0	0.114	
2.0	0.0	0.0	0.0	0.0	0.144	
3.0	0.0	0.0	0.0	0.0	0.176	
4.0	0.0	0.0	0.0	0.0	0.202	
5.0	0.0	0.0	0.0	0.0	0.226	
6.0	0.0	0.0	0.0	0.0	0.246	
7.0	0.0	0.0	0.0	0.0	0.267	
8.0	0.0	0.0	0.0	0.0	0.275	
9.0	0.0	0.0	0.0	0.0	0.287	
10.0	0.0	0.0	0.0	0.0	0.293	
11.0	0.0	0.0	0.0	0.0	0.308	
12.0	0.0	0.0	0.0	0.0	0.325	
13.0	0.0	0.0	0.0	0.0	0.346	
14.0	0.0	0.0	0.0	0.0	0.36	
15.0	0.0	0.0	0.0	0.0	0.369	
0.0	0.0	0.0	0.0	0.0	0.366	
1.0	0.0	0.0	0.0	0.0	0.349	
2.0	0.0	0.0	0.0	0.0	0.325	
3.0	0.0	0.0	0.0	0.0	0.302	
4.0	0.0	0.0	0.0	0.0	0.275	
5.0	0.0	0.0	0.0	0.0	0.246	
6.0	0.0	0.0	0.0	0.0	0.211	
7.0	0.0	0.0	0.0	0.0	0.173	
8.0	0.0	0.0	0.0	0.0	0.126	
9.0	0.0	0.0	0.0	0.0	0.076	
10.0	0.0	0.0	0.0	0.0	0.023	
11.0	0.0	0.0	0.0	0.0	-0.029	
12.0	0.0	0.0	0.0	0.0	-0.085	
13.0	0.0	0.0	0.0	0.0	-0.132	
14.0	0.0	0.0	0.0	0.0	-0.188	
15.0	0.0	0.0	0.0	0.0	-0.22	
0.0	0.0	0.0	0.0	0.0	-0.234	
1.0	0.0	0.0	0.0	0.0	-0.243	
2.0	0.0	0.0	0.0	0.0	-0.24	
3.0	0.0	0.0	0.0	0.0	-0.231	
4.0	0.0	0.0	0.0	0.0	-0.223	
5.0	0.0	0.0	0.0	0.0	-0.208	
6.0	0.0	0.0	0.0	0.0	-0.193	
7.0	0.0	0.0	0.0	0.0	-0.179	
8.0	0.0	0.0	0.0	0.0	-0.161	
9.0	0.0	0.0	0.0	0.0	-0.146	
10.0	0.0	0.0	0.0	0.0	-0.135	
11.0	0.0	0.0	0.0	0.0	-0.126	
12.0	0.0	0.0	0.0	0.0	-0.12	
13.0	0.0	0.0	0.0	0.0	-0.12	
14.0	0.0	0.0	0.0	0.0	-0.12	
15.0	0.0	0.0	0.0	0.0	-0.123	
0.0	0.0	0.0	0.0	0.0	-0.123	
1.0	0.0	0.0	0.0	0.0	-0.12	
2.0	0.0	0.0	0.0	0.0	-0.132	
3.0	0.0	0.0	0.0	0.0	-0.123	
4.0	0.0	0.0	0.0	0.0	-0.111	
5.0	0.0	0.0	0.0	0.0	-0.1	
6.0	0.0	0.0	0.0	0.0	-0.085	
7.0	0.0	0.0	0.0	0.0	-0.07	
8.0	0.0	0.0	0.0	0.0	-0.053	
9.0	0.0	0.0	0.0	0.0	-0.038	
10.0	0.0	0.0	0.0	0.0	-0.023	
11.0	0.0	0.0	0.0	0.0	-0.012	
12.0	0.0	0.0	0.0	0.0	-0.003	
13.0	0.0	0.0	0.0	0.0	0.0	
14.0	0.0	0.0	0.0	0.0	0.0	
15.0	0.0	0.0	0.0	0.0	-0.003	
0.0	0.0	0.0	0.0	0.0	-0.009	
1.0	0.0	0.0	0.0	0.0	-0.018	
2.0	0.0	0.0	0.0	0.0	-0.029	
3.0	0.0	0.0	0.0	0.0	-0.038	
4.0	0.0	0.0	0.0	0.0	-0.05	
5.0	0.0	0.0	0.0	0.0	-0.056	
6.0	0.0	0.0	0.0	0.0	-0.062	
7.0	0.0	0.0	0.0	0.0	-0.059	
8.0	0.0	0.0	0.0	0.0	-0.056	
9.0	0.0	0.0	0.0	0.0	-0.05	
10.0	0.0	0.0	0.0	0.0	-0.038	
11.0	0.0	0.0	0.0	0.0	-0.026	
12.0	0.0	0.0	0.0	0.0	-0.015	
13.0	0.0	0.0	0.0	0.0	-0.003	
14.0	0.0	0.0	0.0	0.0	0.009	
15.0	0.0	0.0	0.0	0.0	0.018	
0.0	0.0	0.0	0.0	0.0	0.023	
1.0	0.0	0.0	0.0	0.0	0.026	
2.0	0.0	0.0	0.0	0.0	0.023	
3.0	0.0	0.0	0.0	0.0	0.021	
4.0	0.0	0.0	0.0	0.0	0.012	
5.0	0.0	0.0	0.0	0.0	0.003	
6.0	0.0	0.0	0.0	0.0	-0.003	
7.0	0.0	0.0	0.0	0.0	-0.015	
8.0	0.0	0.0	0.0	0.0	-0.023	
9.0	0.0	0.0	0.0	0.0	-0.029	
10.0	0.0	0.0	0.0	0.0	-0.038	
11.0	0.0	0.0	0.0	0.0	-0.038	
12.0	0.0	0.0	0.0	0.0	-0.035	
13.0	0.0	0.0	0.0	0.0	-0.029	
14.0	0.0	0.0	0.0	0.0	-0.023	
15.0	0.0	0.0	0.0	0.0	-0.015	
0.0	0.0	0.0	0.0	0.0	-0.003	
1.0	0.0	0.0	0.0	0.0	0.012	
2.0	0.0	0.0	0.0	0.0	0.026	
3.0	0.0	0.0	0.0	0.0	0.035	
4.0	0.0	0.0	0.0	0.0	0.041	
5.0	0.0	0.0	0.0	0.0	0.044	
6.0	0.0	0.0	0.0	0.0	0.041	
7.0	0.0	0.0	0.0	0.0	0.035	
8.0	0.0	0.0	0.0	0.0	0.029	
9.0	0.0	0.0	0.0	0.0	0.021	
10.0	0.0	0.0	0.0	0.0	0.009	
11.0	0.0	0.0	0.0	0.0	-0.003	
12.0	0.0	0.0	0.0	0.0	-0.012	
13.0	0.0	0.0	0.0	0.0	-0.021	
14.0	0.0	0.0	0.0	0.0	-0.032	
15.0	0.0	0.0	0.0	0.0	-0.032	
0.0	0.0	0.0	0.0	0.0	-0.026	
1.0	0.0	0.0	0.0	0.0	-0.021	
2.0	0.0	0.0	0.0	0.0	-0.006	
3.0	0.0	0.0	0.0	0.0	0.003	
4.0	0.0	0.0	0.0	0.0	0.015	
5.0	0.0	0.0	0.0	0.0	0.029	
6.0	0.0	0.0	0.0	0.0	0.041	
7.0	0.0	0.0	0.0	0.0	0.05	
8.0	0.0	0.0	0.0	0.0	0.053	
9.0	0.0	0.0	0.0	0.0	0.053	
10.0	0.0	0.0	0.0	0.0	0.05	
11.0	0.0	0.0	0.0	0.0	0.044	
12.0	0.0	0.0	0.0	0.0	0.038	
13.0	0.0	0.0	0.0	0.0	0.026	
14.0	0.0	0.0	0.0	0.0	0.015	
15.0	0.0	0.0	0.0	0.0	0.003	
0.0	0.0	0.0	0.0	0.0	-0.006	
1.0	0.0	0.0	0.0	0.0	-0.015	
2.0	0.0	0.0	0.0	0.0	-0.021	
3.0	0.0	0.0	0.0	0.0	-0.023	
4.0	0.0	0.0	0.0	0.0	-0.021	
5.0	0.0	0.0	0.0	0.0	-0.012	
6.0	0.0	0.0	0.0	0.0	-0.006	
7.0	0.0	0.0	0.0	0.0	0.003	
8.0	0.0	0.0	0.0	0.0	0.015	
9.0	0.0	0.0	0.0	0.0	0.026	
10.0	0.0	0.0	0.0	0.0	0.038	
11.0	0.0	0.0	0.0	0.0	0.047	
12.0	0.0	0.0	0.0	0.0	0.053	
13.0	0.0	0.0	0.0	0.0	0.056	
14.0	0.0	0.0	0.0	0.0	0.053	
15.0	0.0	0.0	0.0	0.0	0.047	
0.0	0.0	0.0	0.0	0.0	0.038	
1.0	0.0	0.0	0.0	0.0	0.029	
2.0	0.0	0.0	0.0	0.0	0.018	
3.0	0.0	0.0	0.0	0.0	0.009	
4.0	0.0	0.0	0.0	0.0	-0.003	
5.0	0.0	0.0	0.0	0.0	-0.009	
6.0	0.0	0.0	0.0	0.0	-0.015	
7.0	0.0	0.0	0.0	0.0	-0.015	
8.0	0.0	0.0	0.0	0.0	-0.012	
9.0	0.0	0.0	0.0	0.0	-0.009	
10.0	0.0	0.0	0.0	0.0	-0.003	
11.0	0.0	0.0	0.0	0.0	0.012	
12.0	0.0	0.0	0.0	0.0	0.023	
13.0	0.0	0.0	0.0	0.0	0.038	
14.0	0.0	0.0	0.0	0.0	0.05	
15.0	0.0	0.0	0.0	0.0	0.059	
0.0	0.0	0.0	0.0	0.0	0.064	
1.0	0.0	0.0	0.0	0.0	0.064	
2.0	0.0	0.0	0.0	0.0	0.062	
3.0	0.0	0.0	0.0	0.0	0.056	
4.0	0.0	0.0	0.0	0.0	0.05	
5.0	0.0	0.0	0.0	0.0	0.038	
6.0	0.0	0.0	0.0	0.0	0.029	
7.0	0.0	0.0	0.0	0.0	0.018	
8.0	0.0	0.0	0.0	0.0	0.009	
9.0	0.0	0.0	0.0	0.0	0.003	
10.0	0.0	0.0	0.0	0.0	-0.015	
11.0	0.0	0.0	0.0	0.0	-0.012	
12.0	0.0	0.0	0.0	0.0	-0.003	
13.0	0.0	0.0	0.0	0.0	0.006	
14.0	0.0	0.0	0.0	0.0	0.021	
15.0	0.0	0.0	0.0	0.0	0.032	
0.0	0.0	0.0	0.0	0.0	0.047	
1.0	0.0	0.0	0.0	0.0	0.059	
2.0	0.0	0.0	0.0	0.0	0.07	
3.0	0.0	0.0	0.0	0.0	0.082	
4.0	0.0	0.0	0.0	0.0	0.091	
5.0	0.0	0.0	0.0	0.0	0.091	
6.0	0.0	0.0	0.0	0.0	0.088	
7.0	0.0	0.0	0.0	0.0	0.085	
8.0	0.0	0.0	0.0	0.0	0.079	
9.0	0.0	0.0	0.0	0.0	0.067	
10.0	0.0	0.0	0.0	0.0	0.056	
11.0	0.0	0.0	0.0	0.0	0.047	
12.0	0.0	0.0	0.0	0.0	0.041	
13.0	0.0	0.0	0.0	0.0	0.035	
14.0	0.0	0.0	0.0	0.0	0.018	
15.0	0.0	0.0	0.0	0.0	0.021	
0.0	0.0	0.0	0.0	0.0	0.023	
1.0	0.0	0.0	0.0	0.0	0.032	
2.0	0.0	0.0	0.0	0.0	0.044	
3.0	0.0	0.0	0.0	0.0	0.056	
4.0	0.0	0.0	0.0	0.0	0.067	
5.0	0.0	0.0	0.0	0.0	0.082	
6.0	0.0	0.0	0.0	0.0	0.097	
7.0	0.0	0.0	0.0	0.0	0.105	
8.0	0.0	0.0	0.0	0.0	0.117	
9.0	0.0	0.0	0.0	0.0	0.12	
10.0	0.0	0.0	0.0	0.0	0.12	
11.0	0.0	0.0	0.0	0.0	0.117	
12.0	0.0	0.0	0.0	0.0	0.111	
13.0	0.0	0.0	0.0	0.0	0.103	
14.0	0.0	0.0	0.0	0.0	0.091	
15.0	0.0	0.0	0.0	0.0	0.082	
0.0	0.0	0.0	0.0	0.0	0.07	
1.0	0.0	0.0	0.0	0.0	0.064	
2.0	0.0	0.0	0.0	0.0	0.05	
3.0	0.0	0.0	0.0	0.0	0.05	
4.0	0.0	0.0	0.0	0.0	0.056	
5.0	0.0	0.0	0.0	0.0	0.064	
6.0	0.0	0.0	0.0	0.0	0.076	
7.0	0.0	0.0	0.0	0.0	0.085	
8.0	0.0	0.0	0.0	0.0	0.097	
9.0	0.0	0.0	0.0	0.0	0.111	
10.0	0.0	0.0	0.0	0.0	0.123	
11.0	0.0	0.0	0.0	0.0	0.132	
12.0	0.0	0.0	0.0	0.0	0.138	
13.0	0.0	0.0	0.0	0.0	0.135	
14.0	0.0	0.0	0.0	0.0	0.135	
15.0	0.0	0.0	0.0	0.0	0.129	
0.0	0.0	0.0	0.0	0.0	0.117	
1.0	0.0	0.0	0.0	0.0	0.105	
2.0	0.0	0.0	0.0	0.0	0.094	
3.0	0.0	0.0	0.0	0.0	0.082	
4.0	0.0	0.0	0.0	0.0	0.07	
5.0	0.0	0.0	0.0	0.0	0.059	
6.0	0.0	0.0	0.0	0.0	0.035	
7.0	0.0	0.0	0.0	0.0	0.032	
8.0	0.0	0.0	0.0	0.0	0.035	
9.0	0.0	0.0	0.0	0.0	0.041	
10.0	0.0	0.0	0.0	0.0	0.05	
11.0	0.0	0.0	0.0	0.0	0.062	
12.0	0.0	0.0	0.0	0.0	0.073	
13.0	0.0	0.0	0.0	0.0	0.088	
14.0	0.0	0.0	0.0	0.0	0.097	
15.0	0.0	0.0	0.0	0.0	0.103	
0.0	0.0	0.0	0.0	0.0	0.105	
1.0	0.0	0.0	0.0	0.0	0.105	
2.0	0.0	0.0	0.0	0.0	0.103	
3.0	0.0	0.0	0.0	0.0	0.097	
4.0	0.0	0.0	0.0	0.0	0.088	
5.0	0.0	0.0	0.0	0.0	0.079	
6.0	0.0	0.0	0.0	0.0	0.07	
7.0	0.0	0.0	0.0	0.0	0.059	
8.0	0.0	0.0	0.0	0.0	0.047	
9.0	0.0	0.0	0.0	0.0	0.038	
10.0	0.0	0.0	0.0	0.0	0.018	
11.0	0.0	0.0	0.0	0.0	0.015	
12.0	0.0	0.0	0.0	0.0	0.018	
13.0	0.0	0.0	0.0	0.0	0.021	
14.0	0.0	0.0	0.0	0.0	0.032	
15.0	0.0	0.0	0.0	0.0	0.041	
0.0	0.0	0.0	0.0	0.0	0.053	
1.0	0.0	0.0	0.0	0.0	0.064	
2.0	0.0	0.0	0.0	0.0	0.07	
3.0	0.0	0.0	0.0	0.0	0.073	
4.0	0.0	0.0	0.0	0.0	0.073	
5.0	0.0	0.0	0.0	0.0	0.073	
6.0	0.0	0.0	0.0	0.0	0.067	
7.0	0.0	0.0	0.0	0.0	0.059	
8.0	0.0	0.0	0.0	0.0	0.044	
9.0	0.0	0.0	0.0	0.0	0.026	
10.0	0.0	0.0	0.0	0.0	0.009	
11.0	0.0	0.0	0.0	0.0	-0.009	
12.0	0.0	0.0	0.0	0.0	-0.023	
13.0	0.0	0.0	0.0	0.0	-0.035	
14.0	0.0	0.0	0.0	0.0	-0.062	
15.0	0.0	0.0	0.0	0.0	-0.064	
0.0	0.0	0.0	0.0	0.0	-0.064	
1.0	0.0	0.0	0.0	0.0	-0.062	
2.0	0.0	0.0	0.0	0.0	-0.056	
3.0	0.0	0.0	0.0	0.0	-0.047	
4.0	0.0	0.0	0.0	0.0	-0.038	
5.0	0.0	0.0	0.0	0.0	-0.023	
6.0	0.0	0.0	0.0	0.0	-0.018	
7.0	0.0	0.0	0.0	0.0	-0.012	
8.0	0.0	0.0	0.0	0.0	-0.012	
9.0	0.0	0.0	0.0	0.0	-0.012	
10.0	0.0	0.0	0.0	0.0	-0.021	
11.0	0.0	0.0	0.0	0.0	-0.029	
12.0	0.0	0.0	0.0	0.0	-0.041	
13.0	0.0	0.0	0.0	0.0	-0.059	
14.0	0.0	0.0	0.0	0.0	-0.076	
15.0	0.0	0.0	0.0	0.0	-0.094	
0.0	0.0	0.0	0.0	0.0	-0.114	
1.0	0.0	0.0	0.0	0.0	-0.129	
2.0	0.0	0.0	0.0	0.0	-0.138	
3.0	0.0	0.0	0.0	0.0	-0.144	
4.0	0.0	0.0	0.0	0.0	-0.144	
5.0	0.0	0.0	0.0	0.0	-0.141	
6.0	0.0	0.0	0.0	0.0	-0.135	
7.0	0.0	0.0	0.0	0.0	-0.129	
8.0	0.0	0.0	0.0	0.0	-0.117	
9.0	0.0	0.0	0.0	0.0	-0.108	
10.0	0.0	0.0	0.0	0.0	-0.1	
11.0	0.0	0.0	0.0	0.0	-0.091	
12.0	0.0	0.0	0.0	0.0	-0.085	
13.0	0.0	0.0	0.0	0.0	-0.082	
14.0	0.0	0.0	0.0	0.0	-0.082	
15.0	0.0	0.0	0.0	0.0	-0.088	
0.0	0.0	0.0	0.0	0.0	-0.097	
1.0	0.0	0.0	0.0	0.0	-0.108	
2.0	0.0	0.0	0.0	0.0	-0.117	
3.0	0.0	0.0	0.0	0.0	-0.129	
4.0	0.0	0.0	0.0	0.0	-0.135	
5.0	0.0	0.0	0.0	0.0	-0.138	
6.0	0.0	0.0	0.0	0.0	-0.155	
7.0	0.0	0.0	0.0	0.0	-0.155	
8.0	0.0	0.0	0.0	0.0	-0.149	
9.0	0.0	0.0	0.0	0.0	-0.144	
10.0	0.0	0.0	0.0	0.0	-0.141	
11.0	0.0	0.0	0.0	0.0	-0.129	
12.0	0.0	0.0	0.0	0.0	-0.12	
13.0	0.0	0.0	0.0	0.0	-0.108	
14.0	0.0	0.0	0.0	0.0	-0.1	
15.0	0.0	0.0	0.0	0.0	-0.094	
0.0	0.0	0.0	0.0	0.0	-0.088	
1.0	0.0	0.0	0.0	0.0	-0.091	
2.0	0.0	0.0	0.0	0.0	-0.094	
3.0	0.0	0.0	0.0	0.0	-0.1	
4.0	0.0	0.0	0.0	0.0	-0.111	
5.0	0.0	0.0	0.0	0.0	-0.12	
6.0	0.0	0.0	0.0	0.0	-0.129	
7.0	0.0	0.0	0.0	0.0	-0.141	
